11025
-9.15527E-5
-3.05176E-4
-8.8501E-4
-0.00781
-0.03717
-0.03436
-0.02979
-0.02304
-0.02362
-0.02292
-0.01877
-0.01837
-0.01865
-0.01892
-0.02423
-0.01315
-0.01425
-0.01062
-0.01358
-0.01245
-0.0134
-0.0097
-0.00235
-0.00574
-0.01395
-0.00546
-0.00549
-0.0047
-0.00638
-0.00543
-0.01584
-0.02402
-0.03015
-0.03137
-0.03268
-0.03937
-0.04504
-0.04373
-0.0463
-0.04294
-0.03857
-0.04633
-0.04642
-0.04532
-0.0441
-0.04034
-0.04791
-0.05661
-0.05505
-0.05624
-0.05698
-0.05591
-0.0556
-0.05298
-0.05817
-0.06064
-0.05707
-0.05817
-0.0463
-0.0437
-0.04108
-0.03998
-0.03802
-0.03116
-0.03217
-0.03287
-0.03195
-0.02707
-0.03085
-0.03198
-0.02689
-0.02765
-0.0274
-0.02502
-0.02588
-0.01971
-0.01334
-0.01303
-0.01846
-0.01471
-0.00558
-0.00488
-0.00778
0.00101
-0.00436
-0.00385
-0.00241
0.00403
-0.0011
0.00159
3.66211E-4
0.00412
0.00378
0.01205
0.01251
0.0083
0.01166
0.01443
0.01855
0.02432
0.02567
0.03363
0.03677
0.03787
0.04556
0.04437
0.04688
0.05652
0.06012
0.04691
0.05188
0.04785
0.04672
0.04874
0.04764
0.04675
0.04385
0.052
0.04645
0.0437
0.04178
0.04675
0.04764
0.04343
0.0347
0.03687
0.03833
0.03989
0.04266
0.03616
0.03479
0.03336
0.03207
0.04285
0.04419
0.03317
0.02667
0.02545
0.02991
0.02893
0.02844
0.02295
0.02136
0.03058
0.02356
0.02896
0.02252
0.0191
0.01843
0.01712
0.02438
0.02841
0.0177
0.01663
0.02005
0.0228
0.0257
0.02417
0.026
0.0253
0.0224
0.01965
0.02325
0.03125
0.02582
0.02008
0.02286
0.0181
0.01614
0.01862
0.01114
0.0069
0.0087
0.01147
0.02002
0.0202
0.01718
0.01434
0.02026
0.02307
0.02542
0.01755
0.03018
0.02353
0.01987
0.01788
0.01993
0.02228
0.02396
0.01859
0.01114
0.01004
0.01584
0.01993
0.01456
0.01135
0.01056
0.01697
0.01706
0.01141
0.00803
0.00427
-0.00165
0.00607
0.00339
-0.00482
-0.00934
-0.01477
-0.01208
-0.01187
-0.01965
-0.0209
-0.02304
-0.01935
-0.022
-0.03033
-0.03589
-0.03674
-0.03058
-0.02484
-0.02478
-0.02042
-0.01419
-0.01471
-0.01404
-0.00742
-0.01047
-0.00974
-0.01224
-0.0079
-0.00369
-0.01764
-0.01746
-0.0159
-0.02109
-0.0235
-0.02982
-0.03168
-0.03046
-0.02731
-0.02628
-0.03152
-0.03641
-0.03909
-0.03424
-0.03357
-0.03299
-0.03787
-0.0351
-0.03143
-0.03494
-0.03931
-0.04385
-0.04929
-0.0499
-0.05051
-0.04828
-0.03915
-0.04608
-0.05334
-0.05634
-0.05676
-0.05334
-0.05447
-0.05441
-0.05087
-0.05148
-0.05661
-0.05341
-0.04813
-0.05212
-0.04947
-0.05154
-0.05606
-0.04178
-0.03305
-0.03607
-0.03329
-0.02863
-0.02658
-0.01816
-0.01428
-0.01178
-0.01404
-0.01135
-0.00684
-0.01038
-0.00397
-0.00797
-0.00516
-3.96729E-4
0.00488
0.00516
0.005
0.01328
0.00974
0.01031
0.01114
0.01501
0.01147
0.0123
0.01318
0.0144
0.01361
0.01361
0.01422
0.00839
0.0101
0.01251
0.00833
0.00797
0.01141
0.00958
0.00745
0.00308
0.00317
0.00668
-0.0025
-0.00235
-0.00241
-4.88281E-4
-0.00183
0.00726
0.00937
0.01733
0.0141
0.022
0.00891
0.01135
0.00705
0.0011
0.0014
0.00333
0.00162
-0.004
-0.00806
-0.00668
-0.01398
-0.01633
-0.01248
-0.01318
-0.01447
-0.01373
-0.0231
-0.01614
-0.01102
-0.01053
-0.01685
-0.02112
-0.02295
-0.02014
-0.02551
-0.02386
-0.03128
-0.03415
-0.03183
-0.02725
-0.02655
-0.02631
-0.03384
-0.03705
-0.03415
-0.02536
-0.02194
-0.02231
-0.0311
-0.03656
-0.03302
-0.02957
-0.02893
-0.02698
-0.03381
-0.02597
-0.02444
-0.02075
-0.01624
-0.01553
-0.01328
-0.00293
-0.00986
-0.00372
0.00201
0.0047
0.00583
0.00644
0.0079
0.00302
0.0127
0.01486
0.0094
0.01352
0.01337
0.01794
0.01956
0.03003
0.03116
0.03323
0.03253
0.0394
0.03094
0.0401
0.03406
0.03033
0.03638
0.03647
0.0481
0.04333
0.03592
0.03125
0.03094
0.03183
0.03436
0.03247
0.02771
0.0321
0.02573
0.02448
0.02063
0.02338
0.01556
0.01196
0.01416
0.00739
0.00339
0.00101
-0.00391
-4.57764E-4
-0.00668
-0.01031
-0.01337
-0.01721
-0.02112
-0.0239
-0.03244
-0.03937
-0.04071
-0.03119
-0.0343
-0.03476
-0.03333
-0.0246
-0.02332
-0.01831
-0.01746
-0.01721
-0.00751
-0.00854
-0.00806
-0.01797
-0.01709
-0.01144
-0.00439
-0.00928
-0.00809
-0.00528
-0.01086
-0.00525
-0.00488
-0.00629
-0.00317
-0.00793
-0.00723
-0.00372
-0.0083
-0.0108
-0.01035
-0.01627
-0.01248
-0.01208
-0.01578
-0.01459
-0.01309
-0.01294
-0.00589
-0.00284
0.00507
0.00684
0.00272
0.01016
0.0119
0.01593
0.00742
0.00357
0.005
0.00314
0.00345
0.00504
0.00629
0.01031
0.00305
0.0098
0.00378
0.01102
0.00912
0.00589
0.00571
0.00259
0.00778
0.00836
0.00656
0.00659
0.00699
0.00339
-0.00275
3.35693E-4
-0.00128
0
0.00497
0.00534
0.00226
0.00153
0.00391
0.00601
0.00592
0.00894
0.00604
0.00537
0.0065
0.00742
0.00201
0.00601
0.00266
0.004
-0.00131
0.00269
-5.49316E-4
-0.00259
-0.0022
0.0014
0.0054
0.01221
0.00684
0.01404
0.01401
0.02057
0.01801
0.02084
0.02448
0.02621
0.02917
0.02603
0.0325
0.0336
0.03235
0.02991
0.02112
0.02209
0.02252
0.02338
0.02106
0.01981
0.01993
0.01437
0.0097
0.01025
0.00845
0.00443
0.01065
0.00354
0.00427
0.00201
-0.00189
0.00278
-3.05176E-4
-0.00299
-0.00598
-0.00665
-0.01236
-0.00388
-0.00366
-0.00824
-0.0181
-0.01611
-0.00986
-0.00662
-0.00732
-0.01517
-0.00748
-0.00647
-0.00464
-0.00113
-0.00671
-0.00928
-0.00986
-0.00894
-0.01074
-0.00604
-0.01178
-0.01178
-0.01422
-0.01477
-0.01431
-0.01236
-0.01013
-0.01227
-0.0159
-0.01425
-0.01172
-0.00769
-0.01172
-0.00879
-0.01077
-0.0098
-0.01398
-0.00613
-0.00537
-0.01114
-0.00723
-0.00427
-0.0051
-0.00259
0.00363
0.00113
3.96729E-4
0.00687
0.00125
0.00519
0.00665
0.00638
6.40869E-4
-0.00211
1.83105E-4
0.00607
0.00302
0.0022
-0.00488
-0.0043
0.00772
0.0061
0.01245
0.0043
0.00754
0.00906
0.00366
-7.93457E-4
0.00479
-0.00256
0.00217
0.00296
0.00104
-0.00433
-0.0033
-0.00677
-0.00583
-0.00363
-0.00275
-0.00687
-0.00793
-0.01233
-0.01797
-0.02426
-0.02896
-0.0285
-0.02765
-0.02267
-0.02341
-0.02139
-0.01978
-0.02271
-0.01987
-0.01685
-0.01181
9.46045E-4
0.00858
0.00693
0.00201
0.00882
0.00986
0.02292
0.01785
0.02087
0.01758
0.01352
0.01346
0.01834
0.0166
0.01437
0.00589
0.00848
0.00891
0.01392
0.00919
1.83105E-4
-6.40869E-4
-0.00293
-0.00546
-0.00668
-0.01212
-0.02151
-0.02597
-0.02512
-0.01996
-0.02084
-0.02451
-0.03534
-0.03204
-0.03339
-0.0321
-0.03433
-0.04156
-0.03879
-0.04425
-0.04352
-0.03903
-0.0347
-0.03992
-0.03836
-0.03528
-0.03613
-0.03625
-0.03006
-0.02783
-0.02682
-0.02911
-0.02014
-0.02219
-0.01752
-0.01215
-0.01419
-0.00739
-0.01172
-0.00461
-0.01154
-0.00412
-0.0079
6.10352E-5
-0.00211
-0.00522
-0.00116
-0.0022
-0.00137
0.00122
0.00293
-7.01904E-4
0.0018
0.0058
0.00647
0.00345
0.00574
0.00409
-0.0054
-0.01022
-0.01321
-0.00998
-0.01306
-0.00699
-0.00912
-0.01239
-0.01648
-0.00717
-0.00571
-0.00671
-0.01245
-0.00946
-0.01273
-0.00632
-0.00311
-0.00601
-0.00879
0.00388
-0.00269
-0.00772
-0.00595
-0.00839
-0.00827
-0.00568
-0.00482
-0.00677
-0.00482
-0.01016
-0.01352
-0.01553
-0.01608
-0.01926
-0.01508
-0.01685
-0.02359
-0.0249
-0.02542
-0.02783
-0.02286
-0.02682
-0.02307
-0.02856
-0.021
-0.02069
-0.01462
-0.02298
-0.01877
-0.01682
-0.01797
-0.01071
-0.01144
-0.0108
-0.01913
-0.01471
-0.0155
-0.01343
-0.01306
-0.01898
-0.02374
-0.02512
-0.02563
-0.01862
-0.01895
-0.02023
-0.02472
-0.01797
-0.01883
-0.01706
-0.01572
-0.0137
-0.01593
-0.00818
-0.01044
-0.00986
-0.0061
-0.00427
-0.00201
-0.00363
0.00909
0.00943
0.00357
0.004
0.00653
0.01184
0.01523
0.02066
0.01718
0.02737
0.03329
0.03146
0.03357
0.03452
0.03601
0.03412
0.0386
0.03601
0.04358
0.04599
0.04721
0.0477
0.04584
0.04507
0.0517
0.05005
0.0412
0.03595
0.04251
0.04416
0.04785
0.03806
0.04105
0.03064
0.03046
0.03415
0.0293
0.02023
0.01648
0.01859
0.01349
0.01233
0.01422
0.0116
0.00507
0.00403
0.00134
-0.00162
-0.00555
-0.00381
0.00595
0.00104
0.00436
0.0069
0.00925
0.00772
0.0119
0.00836
0.00482
0.0101
0.00266
9.76563E-4
-0.00107
-0.00873
-0.01181
-0.00903
-0.01038
-0.01343
-0.01392
-0.01959
-0.017
-0.01077
-0.01965
-0.02173
-0.02362
-0.0228
-0.02237
-0.02301
-0.02225
-0.02451
-0.02911
-0.02985
-0.03317
-0.03604
-0.04422
-0.04172
-0.04865
-0.04666
-0.04398
-0.04666
-0.04242
-0.04855
-0.04395
-0.04297
-0.04114
-0.04602
-0.04672
-0.05005
-0.04691
-0.04617
-0.05087
-0.04535
-0.04623
-0.04733
-0.04556
-0.04572
-0.03845
-0.03278
-0.02948
-0.02606
-0.02539
-0.01971
-0.01199
-0.00485
-0.01083
-0.00818
-0.00336
-0.00775
0.00449
0.00934
0.00751
0.0098
0.01181
0.01532
0.01465
0.01852
0.01556
0.01315
0.01816
0.01907
0.01422
0.01257
0.01035
0.00824
0.00192
0.00616
0.00354
0.00122
-0.00363
-0.00281
-0.00531
-0.00168
-0.00198
-8.23975E-4
7.01904E-4
-0.00125
0.00992
0.00528
0.0105
0.00104
0.00201
0.00446
0.00586
0.0076
0.01178
0.01044
0.01474
0.01636
0.0032
5.18799E-4
2.44141E-4
-0.00751
-0.00104
-0.00546
-0.00543
-0.00552
-0.01041
-0.01184
-0.01929
-0.01822
-0.01114
-0.01065
-0.01614
-0.02588
-0.02664
-0.02994
-0.02795
-0.03058
-0.0351
-0.03323
-0.03409
-0.02979
-0.02728
-0.03018
-0.03476
-0.03049
-0.02975
-0.02609
-0.03122
-0.02802
-0.02594
-0.02252
-0.02393
-0.01758
-0.02179
-0.01212
-0.01691
-0.01697
-0.01624
-0.00766
-0.00842
-0.0126
-0.00778
-0.00333
0.00195
0.0069
0.00296
-4.27246E-4
0.00803
0.00616
0.00742
0.01489
0.01306
0.0195
0.01935
0.01962
0.02609
0.02847
0.0336
0.03238
0.02533
0.0249
0.02704
0.03101
0.03629
0.03131
0.03473
0.03735
0.03564
0.03922
0.03467
0.03064
0.03134
0.02353
0.02438
0.02936
0.03229
0.02225
0.01511
0.01825
0.02014
0.01859
0.01889
0.02307
0.01489
0.02737
0.0289
0.02396
0.01996
0.01538
0.0098
0.01093
0.00665
3.35693E-4
-0.00696
-0.0065
-0.01105
-0.01764
-0.02036
-0.02011
-0.02222
-0.02051
-0.02939
-0.02496
-0.02881
-0.02844
-0.02234
-0.01791
-0.01871
-0.02197
-0.01431
-0.0166
-0.02118
-0.01959
-0.00931
-0.0065
-0.0018
-0.0018
-0.00116
-0.00317
-0.00488
-0.0069
0.00259
-4.88281E-4
-0.0058
-0.00726
-0.0072
-0.00455
-0.01019
-0.00443
-0.01022
-0.01669
-0.01709
-0.01526
-0.00659
-0.01407
-0.00909
-0.01956
-0.01212
-0.01465
-0.01544
-0.01648
-0.02225
-0.02069
-0.01544
-0.01511
-0.01614
-0.01831
-0.02585
-0.02142
-0.01273
-0.01205
-0.01294
-0.00888
-0.00171
-0.00613
3.05176E-5
0.00333
-6.10352E-5
0.00577
-8.54492E-4
-0.00323
-6.71387E-4
0.00443
0.01056
0.0029
0.00366
0.01013
0.01102
0.02008
0.02072
0.02448
0.02133
0.02008
0.02197
0.02121
0.01868
0.01804
0.01941
0.02289
0.02344
0.0256
0.02829
0.02338
0.02521
0.02676
0.02893
0.02716
0.03409
0.03088
0.02252
0.0192
0.02298
0.01166
0.00946
0.01239
0.00107
-2.13623E-4
0.00308
8.23975E-4
0.00122
-0.00336
0.00192
0.0069
0.00873
0.008
0.00266
0.00723
0.0105
0.01224
0.01154
0.01321
0.02213
0.02399
0.02185
0.01785
0.0155
0.01492
0.01917
0.00906
0.0145
0.00629
0.0127
0.01489
0.01212
0.0061
0.01031
0.01102
0.01389
0.01309
0.00641
0.00937
0.00412
-0.00217
0.00391
-0.00952
-0.02112
-0.01767
-0.02643
-0.02762
-0.02643
-0.03333
-0.03616
-0.03284
-0.03384
-0.02881
-0.02991
-0.03
-0.03021
-0.02719
-0.02148
-0.02026
-0.02505
-0.03482
-0.03064
-0.03195
-0.03064
-0.0267
-0.03201
-0.02969
-0.03391
-0.03128
-0.02914
-0.01965
-0.02036
-0.02884
-0.02161
-0.01965
-0.01883
-0.02042
-0.01678
-0.02463
-0.02853
-0.02863
-0.02518
-0.01862
-0.02325
-0.02576
-0.02106
-0.01361
-0.02017
-0.01389
-0.01199
-0.01068
-0.00629
-0.00623
9.15527E-4
-0.00558
-0.00482
-0.00186
-0.00821
-0.00616
-0.00348
0.00235
-0.00931
-0.01303
-0.01178
-0.01193
-0.00879
-0.00385
-0.01379
-0.01221
-0.00949
-0.00793
-0.00919
-0.00626
-0.00867
-0.01404
-0.01401
-0.01611
-0.02136
-0.02768
-0.02606
-0.02563
-0.02399
-0.03223
-0.03088
-0.03455
-0.03064
-0.03464
-0.0387
-0.03146
-0.03436
-0.03311
-0.02454
-0.03021
-0.0224
-0.02902
-0.01801
-0.01566
-0.01263
-0.01483
-0.01712
-0.01178
-0.01385
-0.01709
-0.01715
-0.02081
-0.01691
-0.01572
-0.01755
-0.01788
-0.02673
-0.02161
-0.01553
-0.01254
-0.00906
-0.01978
-0.02481
-0.01639
-0.00958
-0.01248
-0.01495
-0.01697
-0.01511
-0.01306
-0.01361
-0.01871
-0.02124
-0.01923
-0.01508
-0.01584
-0.01654
-0.01968
-0.02356
-0.02521
-0.02478
-0.02866
-0.02585
-0.03632
-0.03717
-0.03876
-0.03751
-0.04196
-0.03998
-0.04123
-0.04773
-0.04736
-0.04462
-0.03717
-0.03271
-0.03683
-0.03098
-0.02914
-0.02209
-0.01215
-0.01169
-0.00497
-0.00665
9.15527E-5
0.00266
0.00446
0.00479
0.00339
0.00836
0.00812
0.004
0.01035
0.01242
0.01297
0.01834
0.01923
0.02206
0.02106
0.03149
0.03271
0.02914
0.02533
0.03363
0.02753
0.03079
0.03464
0.03766
0.03796
0.04099
0.04053
0.0412
0.04251
0.04343
0.05072
0.05139
0.05249
0.05383
0.05624
0.05676
0.0625
0.06311
0.06268
0.07312
0.07205
0.07306
0.06564
0.05609
0.05756
0.05481
0.05331
0.04602
0.04333
0.04251
0.04367
0.04291
0.03976
0.03528
0.03354
0.03036
0.02042
0.01508
0.01367
0.0076
0.0097
9.76563E-4
-2.13623E-4
-0.00281
-0.00681
-0.0061
-0.00925
-0.01089
-0.01468
-0.0231
-0.02505
-0.01855
-0.02499
-0.02939
-0.03134
-0.02628
-0.02441
-0.02469
-0.01715
-0.02258
-0.02194
-0.02356
-0.01971
-0.01483
-0.01654
-0.02222
-0.01843
-0.02209
-0.01703
-0.01443
-0.00616
-0.00464
-0.00299
-0.00763
8.23975E-4
-0.00113
0.00903
0.00275
-0.0022
-0.00156
0.00192
0.00797
0.00198
0.00513
0.00525
0.00336
-6.40869E-4
0.00583
0.00742
0.00714
0.01102
0.0065
0.01453
0.01877
0.02042
0.02182
0.01776
0.02359
0.02505
0.03009
0.03171
0.02664
0.02164
0.02759
0.03052
0.03748
0.03543
0.02942
0.03098
0.03464
0.03021
0.02646
0.02719
0.02673
0.02515
0.0239
0.02014
0.01874
0.01346
0.01041
0.00525
0.0025
-1.83105E-4
-0.00269
-0.01096
-0.01639
-0.02585
-0.03
-0.03949
-0.04352
-0.04065
-0.03781
-0.04364
-0.03659
-0.03
-0.03314
-0.0325
-0.03033
-0.02643
-0.0213
-0.01776
-0.01852
-0.01846
-0.01694
-0.0181
-0.01282
-0.01913
-0.01791
-0.02295
-0.02689
-0.0256
-0.02716
-0.02274
-0.02603
-0.03256
-0.02991
-0.02774
-0.01999
-0.0181
-0.01904
-0.02222
-0.02472
-0.01859
-0.02475
-0.0253
-0.02417
-0.02975
-0.0267
-0.02185
-0.01392
-0.01849
-0.01724
-0.01523
-0.01608
-0.01141
-0.00482
-0.01038
-0.0123
-0.00909
-0.00565
-0.00922
-0.009
-0.00708
-0.01266
-0.01297
-0.0191
-0.01096
-0.00659
0.00259
-0.00415
0.00186
0.00507
0.00662
0.00705
0.00714
0.00885
0.0069
0.00931
0.00638
0.01035
0.00653
0.01428
0.00729
0.0155
0.01254
0.01752
0.02045
0.01563
0.01608
0.01404
0.01968
0.01904
0.02545
0.02029
0.02243
0.0246
0.02081
0.01175
0.0087
0.00262
0.00204
0.00162
-0.00363
-0.0032
3.96729E-4
-0.00449
5.18799E-4
0.00302
0.00659
0.0033
0.00446
0.01175
0.01114
0.01605
0.01691
0.01923
0.02222
0.02441
0.0202
0.0166
0.01642
0.0097
0.01566
0.01453
0.01086
0.01547
0.01566
0.00833
0.00955
0.01086
0.01193
0.00134
0.00146
-0.01071
-0.00916
-0.0054
-0.00189
-0.00461
-0.00394
-0.00961
-0.00864
-0.00693
-0.00415
-0.00922
-0.01288
-0.01846
-0.02121
-0.02377
-0.0246
-0.02655
-0.02563
-0.03061
-0.03046
-0.01968
-0.02411
-0.01852
-0.02509
-0.03195
-0.03079
-0.03253
-0.02747
-0.03143
-0.03369
-0.0246
-0.03159
-0.02866
-0.02151
-0.02014
-0.01749
-0.00983
-0.00354
-8.23975E-4
0.00565
0.01498
0.01422
0.01392
0.01456
0.01703
0.02002
0.01013
0.00684
0.00623
0.01224
0.01462
0.01376
0.02179
0.01834
0.02255
0.01941
0.0231
0.01642
0.01608
0.0188
0.01474
0.01331
0.01688
0.01932
0.00778
0.00125
-3.05176E-4
9.46045E-4
-0.00272
0.00232
-0.00751
-0.00467
-0.00293
-6.10352E-4
-0.00229
-0.00848
-0.01398
-0.00952
-0.00989
-0.01315
-0.01483
-0.02164
-0.02734
-0.02869
-0.02713
-0.03033
-0.03708
-0.03729
-0.03732
-0.03763
-0.04968
-0.05383
-0.048
-0.04468
-0.04269
-0.04584
-0.04041
-0.03876
-0.03726
-0.03336
-0.0304
-0.02548
-0.0231
-0.02286
-0.01733
-0.01743
-0.01688
-0.01334
-0.00726
-0.00238
-0.0069
-0.01031
-0.01526
-0.01163
-0.01062
-0.00809
-0.0098
-0.01114
-0.00912
-0.00726
-0.005
-0.00366
-0.0069
-0.0069
-0.00583
-0.00443
-0.00198
-0.00311
-0.00809
-0.00757
-0.00861
4.57764E-4
0.00211
0.00146
-0.00427
-0.00446
-0.01013
-0.00452
0.00247
0.00296
-4.57764E-4
-0.00107
-0.0033
-0.00296
-0.00604
-0.0076
-0.00894
-0.01181
-0.01074
-0.0061
-0.00696
-0.00943
-0.00754
-0.00842
-0.00369
-0.00204
4.27246E-4
-0.00156
8.54492E-4
-0.00284
-0.00586
0.00201
-0.00262
-0.00821
-0.00681
-0.01093
-0.01129
-0.00861
-0.00693
-0.0032
-0.01096
-0.00284
-0.00143
0.00171
0.00186
0.01038
0.004
0.00552
0.00595
0.00391
-0.00308
-0.00656
-0.00775
-0.00992
-0.01126
-0.00937
-0.0126
-0.01181
-0.01099
-0.00961
-0.0065
-0.00366
-0.00385
-0.00638
-0.00778
-0.00482
-0.0025
-0.00919
-0.00317
0.00513
-0.00366
-9.15527E-4
-6.10352E-4
-0.00296
-0.00198
-0.00253
-5.49316E-4
8.8501E-4
0.00113
0.00177
-3.96729E-4
5.18799E-4
5.79834E-4
-3.96729E-4
0.00565
0.00443
-0.00156
-0.00348
-0.01089
-0.00775
-0.00821
-0.00986
-0.01956
-0.01529
-0.02374
-0.01782
-0.01599
-0.02353
-0.02948
-0.02991
-0.03162
-0.02756
-0.02734
-0.03409
-0.02765
-0.03186
-0.02866
-0.01694
-0.01831
-0.01935
-0.02179
-0.02188
-0.02118
-0.01691
-0.0141
-0.01743
-0.01846
-0.01926
-0.01617
-0.01749
-0.01309
-0.01147
-0.00989
-0.01041
-0.00797
7.01904E-4
0.00235
0.01505
0.00854
0.00284
0.00989
0.01334
0.01218
0.00916
0.00345
0.01526
0.0155
0.01355
0.01227
0.01526
0.01874
0.02667
0.02499
0.02179
0.02878
0.03116
0.02914
0.02405
0.02332
0.0303
0.02884
0.02158
0.02182
0.02106
0.02448
0.02029
0.02328
0.02005
0.02335
0.02487
0.02612
0.02396
0.02206
0.01575
0.01602
0.01428
0.01431
0.00488
0.00125
-0.00336
-0.00931
-0.00784
-0.00522
-0.00232
-0.00851
-0.0043
-0.00616
-0.00201
-0.00735
-0.00748
0.0061
0.00577
0.00461
0.01315
0.01254
0.01794
0.01865
0.02072
0.01797
0.02066
0.0322
0.0282
0.03183
0.02933
0.02209
0.0173
0.0246
0.0123
0.01025
0.01065
0.00662
0.00601
0.00848
0.00504
-9.46045E-4
-0.00555
-0.00885
-0.00748
-0.00928
-0.02286
-0.02393
-0.02676
-0.02817
-0.02695
-0.03409
-0.03278
-0.03748
-0.03638
-0.03931
-0.03549
-0.03964
-0.04349
-0.04684
-0.05032
-0.0473
-0.04401
-0.04761
-0.05313
-0.04596
-0.05099
-0.04645
-0.04553
-0.03293
-0.0314
-0.03674
-0.03491
-0.03098
-0.03024
-0.02472
-0.02524
-0.03073
-0.02505
-0.01794
-0.02261
-0.02441
-0.02301
-0.01758
-0.01886
-0.01413
-0.00211
0.00119
0.00217
0.00174
0.00919
0.01288
0.01434
0.02295
0.0134
0.01544
0.02307
0.0257
0.02298
0.02713
0.0238
0.02246
0.0282
0.02417
0.02222
0.01984
0.0163
0.01666
0.02438
0.02002
0.02338
0.02179
0.02664
0.0267
0.02435
0.0231
0.02362
0.03412
0.03101
0.02951
0.03644
0.03995
0.03275
0.03351
0.03723
0.03271
0.01648
0.01004
0.01245
0.00742
-0.00192
-0.00674
-0.00693
-0.00955
-0.00644
-0.01459
-0.01709
-0.01611
-0.01004
-0.00943
-0.01462
-0.02237
-0.0192
-0.0174
-0.02075
-0.01544
-0.01831
-0.02472
-0.02179
-0.02106
-0.026
-0.01764
-0.02802
-0.03238
-0.03207
-0.02704
-0.02518
-0.02441
-0.02661
-0.02441
-0.01987
-0.01468
-0.01102
-0.01086
-0.01526
-0.01785
-0.01059
-0.01086
-0.01068
-0.00897
-0.00262
-0.005
-0.00742
-0.00146
0.00354
0.00858
0.01181
0.0098
0.0069
0.01651
0.02023
0.02341
0.03027
0.02298
0.02692
0.03061
0.0267
0.02869
0.02185
0.02451
0.0217
0.02982
0.0224
0.0256
0.0282
0.02353
0.0235
0.02325
0.02591
0.03052
0.02914
0.02603
0.02615
0.02637
0.03421
0.03723
0.01797
0.01978
0.02402
0.02252
0.02243
0.01901
0.01639
0.0144
0.0152
0.0123
0.01251
-0.00461
-0.00433
-0.00919
-0.01257
-0.0184
-0.02682
-0.0361
-0.03958
-0.03589
-0.04181
-0.05209
-0.05301
-0.05856
-0.05933
-0.06393
-0.07626
-0.07333
-0.06906
-0.06134
-0.05557
-0.0564
-0.04803
-0.04184
-0.03369
-0.03818
-0.03564
-0.04001
-0.03549
-0.02853
-0.02789
-0.0303
-0.02899
-0.02753
-0.01862
-0.01678
-0.01917
-0.01715
-0.01617
-0.01291
-0.00504
-0.00839
-0.01132
-0.01816
-0.01309
-0.00888
-0.00778
-0.01077
-0.00159
-0.00848
-0.00879
-0.00381
-0.00439
-0.00827
-0.01492
-0.02026
-0.01505
-0.00168
-0.00543
-0.00714
-0.00836
-0.01575
-0.01749
-0.00867
-0.00882
-0.01801
-0.01993
-0.01617
-0.01489
-0.01266
-0.01672
-0.01163
-0.00839
-0.00766
-0.01147
-0.0094
-0.00128
-0.00497
-0.00357
5.18799E-4
-6.71387E-4
0.00464
0.01337
0.01208
0.00238
0.00491
0.00726
0.00333
0.00232
0.00146
0.00287
8.8501E-4
0.00125
0.00577
0.00781
0.01773
0.01465
0.01727
0.01865
0.02139
0.021
0.02075
0.02179
0.01547
0.0079
0.01245
0.00601
0.008
0.00699
0.00986
0.00769
0.00674
0.00815
0.00235
0.00424
0.00748
0.01462
0.01157
0.01517
0.01038
0.01099
0.00769
0.00839
0.01019
0.01364
0.01819
0.01904
0.01727
0.00949
0.00684
0.00903
0.00714
0.0032
0.00708
0.00278
0.00269
0.00757
0.0043
7.32422E-4
-0.00186
-0.0025
-0.0014
0.00125
-0.00693
-0.00757
-0.00867
-0.01193
-0.00897
-0.01239
-0.02255
-0.02039
-0.01828
-0.0192
-0.02121
-0.03101
-0.02908
-0.03708
-0.02484
-0.02112
-0.02606
-0.02444
-0.01834
-0.02304
-0.01529
-0.01602
-0.01263
-0.01462
-0.01678
-0.02164
-0.00778
-0.00815
-0.00894
-0.0137
-0.01086
-0.00934
-0.01065
-0.00323
-0.00381
0.00113
-0.00256
-0.0011
0.00125
0.00482
0.00882
0.01096
0.00638
0.00882
0.00687
0.01157
0.01282
0.00568
0.00674
0.00601
0.01123
0.01633
0.01163
0.01575
0.01666
0.01868
0.01813
0.01773
0.01703
0.02011
0.01694
0.01703
0.01151
0.01691
0.01855
0.00842
0.0036
0.00235
0.00128
0.00107
0.00806
-0.00113
-4.57764E-4
-0.00293
-8.23975E-4
0.0032
0.00287
0.00214
-0.00586
-0.00192
-0.00235
-0.00305
-0.00888
-0.01663
-0.02002
-0.0289
-0.03091
-0.04312
-0.04706
-0.047
-0.04849
-0.0531
-0.05667
-0.0564
-0.04895
-0.04004
-0.03714
-0.03421
-0.0296
-0.02347
-0.02097
-0.02377
-0.02103
-0.0177
-0.01917
-0.01437
-0.01691
-0.02026
-0.01108
-0.00607
-0.00946
-0.00186
-0.01337
-0.00775
-0.00412
0.00226
1.52588E-4
-0.00156
-0.00461
-0.00955
-0.01019
-0.00345
-0.00327
2.13623E-4
-0.00797
-0.00806
-0.01154
-0.00586
-0.00818
-0.01584
-0.01965
-0.02029
-0.02029
-0.01938
-0.02072
-0.02155
-0.02652
-0.026
-0.02252
-0.01157
-0.01794
-0.01865
-0.01749
-0.01892
-0.01367
-0.01147
-0.01434
-0.0137
-0.01654
-0.01541
-0.01511
-0.01163
-0.00659
-0.00128
-0.00302
-0.00516
0.00363
0.0054
0.00677
0.00662
0.0043
0.00714
0.00949
0.00107
0.0051
0.00229
0.00662
0.01062
0.00406
0.00278
0.00116
-0.00357
-0.01135
-0.0094
-0.01712
-0.01718
-0.02213
-0.01584
-0.02176
-0.02756
-0.02454
-0.02286
-0.02567
-0.02811
-0.03226
-0.03003
-0.02649
-0.02267
-0.01254
-0.01776
-0.01398
-0.01016
-0.00558
-7.93457E-4
0.00113
0.00232
0.00891
0.01639
0.0228
0.02054
0.03262
0.0343
0.03952
0.04462
0.03882
0.03952
0.04495
0.0408
0.04343
0.0444
0.04498
0.04105
0.03931
0.03394
0.03253
0.02518
0.02344
0.03015
0.02496
0.01938
0.01874
0.02213
0.01898
0.01624
0.01202
0.00543
0.00925
0.00397
0.00269
-0.00104
-0.00507
-0.01364
-0.01666
-0.01294
-0.013
-0.01819
-0.01413
-0.02011
-0.01373
-0.01248
-0.0098
-0.0155
-0.01968
-0.01932
-0.02417
-0.01447
-0.01471
-0.01242
-0.00998
-0.00934
0.00128
0.00659
0.01492
0.02081
0.01831
0.02066
0.0253
0.0231
0.02615
0.02972
0.0289
0.02896
0.03171
0.03278
0.03702
0.03537
0.03033
0.03006
0.03152
0.03662
0.03394
0.04047
0.04294
0.04129
0.0408
0.03549
0.03522
0.03949
0.03326
0.02963
0.02707
0.03027
0.03583
0.03476
0.02576
0.02289
0.02286
0.02338
0.02264
0.01703
0.00735
0.01251
0.00775
0.00507
6.10352E-5
-0.00894
-0.01779
-0.01834
-0.01627
-0.02222
-0.02362
-0.0314
-0.04132
-0.039
-0.03506
-0.0426
-0.05057
-0.04871
-0.04706
-0.05206
-0.05554
-0.06241
-0.05154
-0.04913
-0.03983
-0.03964
-0.0351
-0.04044
-0.03979
-0.03766
-0.03671
-0.03665
-0.03552
-0.03488
-0.03763
-0.035
-0.0351
-0.03613
-0.03006
-0.02441
-0.02811
-0.03644
-0.03091
-0.02625
-0.02472
-0.02246
-0.02191
-0.01956
-0.02216
-0.01489
-0.01471
-0.00867
-0.02148
-0.02469
-0.0231
-0.02655
-0.0228
-0.03186
-0.03992
-0.04135
-0.04413
-0.04169
-0.03717
-0.03735
-0.04156
-0.05154
-0.05127
-0.04977
-0.04156
-0.04843
-0.04584
-0.05212
-0.05533
-0.05438
-0.04208
-0.0499
-0.04861
-0.04898
-0.04858
-0.0386
-0.03433
-0.03522
-0.02829
-0.02231
-0.01929
-0.00543
-0.00409
9.15527E-4
0.00183
0.00101
0.00342
0.00797
0.00909
0.01361
0.01541
0.0162
0.0162
0.02417
0.03534
0.0318
0.02936
0.03262
0.03699
0.03726
0.04318
0.03848
0.03827
0.0278
0.02875
0.03381
0.02859
0.02573
0.02869
0.02454
0.03375
0.03906
0.03674
0.03857
0.03659
0.04144
0.04437
0.0477
0.04453
0.0434
0.04501
0.04208
0.04517
0.04626
0.04633
0.04602
0.05594
0.04315
0.04111
0.04208
0.03668
0.03525
0.03043
0.02811
0.02554
0.02399
0.01971
0.01471
0.00751
-3.35693E-4
-0.00317
-0.0014
-0.00732
-0.01013
-0.00723
-0.01096
-0.00995
-0.00177
-0.01407
-0.01694
-0.01987
-0.01761
-0.01529
-0.0192
-0.02579
-0.03018
-0.02969
-0.02917
-0.02502
-0.03436
-0.03439
-0.03989
-0.03543
-0.03302
-0.03183
-0.03204
-0.03418
-0.03134
-0.03101
-0.0293
-0.02707
-0.0285
-0.02621
-0.02316
-0.02084
-0.01785
-0.01227
-0.00998
-0.01019
-0.00876
3.96729E-4
0.00403
0.00797
0.01657
0.01572
0.00583
0.00696
0.00928
0.00809
0.00613
0.00537
0.00558
0.00293
0.00604
0.01071
0.00998
0.01376
0.0127
0.01135
0.0173
0.01865
0.02521
0.02298
0.01663
0.01492
0.02798
0.02444
0.02087
0.01447
0.0148
0.01419
0.0228
0.0209
0.01196
0.00931
0.01013
0.00497
0.00992
0.00363
-0.00534
-0.00482
-0.00485
-0.00439
-0.00867
-0.00879
-0.01779
-0.02155
-0.01953
-0.01926
-0.02612
-0.02356
-0.02682
-0.03009
-0.03546
-0.0423
-0.03928
-0.03342
-0.02951
-0.02969
-0.02432
-0.02103
-0.02231
-0.02338
-0.02774
-0.0278
-0.02365
-0.02628
-0.02325
-0.02203
-0.01758
-0.01242
-0.01025
-0.01056
-0.00525
-0.00287
-0.00528
0.00217
0.00909
0.00412
0.00946
1.52588E-4
-8.8501E-4
-0.00409
-0.00183
7.93457E-4
0.00424
-8.54492E-4
-0.00824
-0.00644
-0.00427
-0.00546
-0.01791
-0.0202
-0.01953
-0.02335
-0.02408
-0.02423
-0.03632
-0.03207
-0.02905
-0.02701
-0.02951
-0.02933
-0.02731
-0.03079
-0.02875
-0.0242
-0.02881
-0.022
-0.02243
-0.02322
-0.03168
-0.02576
-0.02179
-0.01944
-0.02576
-0.02637
-0.01883
-0.01443
-0.013
-0.01129
-0.01773
-0.01794
-0.01501
-0.01376
-0.0148
-0.01254
-0.01135
-0.01141
-0.0062
-0.0083
-0.00128
-0.00348
0.00107
0.00308
0.0047
0.00565
0.00195
0.00668
-8.8501E-4
-0.00266
-0.00613
-0.00449
-0.01068
-0.01758
-0.0173
-0.01627
-0.01077
-0.01144
-0.01138
-0.01089
-0.0083
-0.00644
-0.00705
-0.00443
-4.57764E-4
0.00296
0.01062
0.00995
0.01205
0.01297
0.02347
0.03143
0.03595
0.03299
0.02667
0.02591
0.02762
0.02405
0.02167
0.02377
0.02521
0.022
0.01706
0.01038
0.00638
0.01086
0.0123
0.00562
0.00845
0.00281
-0.00165
0.00461
-0.00189
-0.00134
-0.00394
-0.00671
-0.01303
-0.00751
-0.00757
-0.00931
-0.00833
-0.01724
-0.02127
-0.01709
-0.01563
-0.01981
-0.01785
-0.00867
-0.0108
-0.00354
-0.0072
-0.01224
-0.01309
-0.01624
-0.01331
-0.01947
-0.02005
-0.02185
-0.02109
-0.01205
-0.00958
-0.00912
-0.00748
-0.00201
-0.00247
-0.00479
-2.74658E-4
0.00885
0.01248
0.00659
0.0097
0.00583
0.0069
0.01324
0.00461
0.00327
0.00705
0.00308
0.00336
-0.00125
-0.00293
5.49316E-4
3.66211E-4
-0.00485
0.00238
9.46045E-4
0.00204
0.00397
0.00208
0.00165
0.00415
0.00906
0.01501
0.00784
0.00851
0.00809
0.0079
0.00729
1.52588E-4
-0.00482
0.00354
0.00211
6.10352E-5
-7.01904E-4
0.00644
0.00357
0.00525
0.00275
0.00281
-0.0011
-0.00211
-3.05176E-4
6.40869E-4
-0.00449
-0.00339
-0.00494
-0.00571
-0.00388
-0.00977
-0.01837
-0.01108
-0.01071
0.00345
-5.49316E-4
4.27246E-4
4.57764E-4
0.00406
0.01031
0.01517
0.01004
0.0098
0.01389
0.01797
0.01434
0.0173
0.00745
0.02176
0.01489
0.01807
0.01288
0.01428
0.01373
0.01556
0.02213
0.02179
0.01279
0.01071
0.00464
0.00635
0.00836
0.00882
0.00604
-0.00549
-0.01016
-0.00839
-0.01111
-0.01489
-0.01535
-0.01486
-0.0228
-0.01364
-0.01276
-0.01669
-0.01907
-0.01932
-0.02322
-0.02423
-0.02505
-0.02951
-0.03265
-0.03317
-0.03458
-0.03653
-0.03558
-0.0387
-0.04797
-0.04782
-0.04282
-0.03632
-0.03284
-0.02869
-0.02454
-0.01959
-0.01416
-0.00586
3.96729E-4
0.00293
0.00394
0.00604
0.00555
0.00665
0.009
0.0152
0.00992
0.01154
0.01157
0.01184
0.01886
0.02115
0.01779
0.01736
0.01791
0.0163
0.00815
0.00922
-0.00452
-0.00699
-0.00418
-0.01175
-0.01846
-0.0162
-0.01666
-0.01022
-0.00336
-7.62939E-4
0.00827
0.00909
0.01187
0.0195
0.01935
0.02185
0.02298
0.02322
0.02646
0.03046
0.03
0.03207
0.04532
0.04468
0.04733
0.04263
0.03351
0.0416
0.03125
0.0311
0.02713
0.02783
0.0228
0.01474
0.01355
0.00867
0.00562
0.00415
0.0098
5.49316E-4
-6.10352E-4
-0.00482
-0.00839
-0.00217
-0.0069
-0.01758
-0.01871
-0.02255
-0.0264
-0.02811
-0.02808
-0.02963
-0.03394
-0.03354
-0.03351
-0.03107
-0.03113
-0.03378
-0.03329
-0.02603
-0.02451
-0.02011
-0.02267
-0.03247
-0.03448
-0.03192
-0.02609
-0.02536
-0.02011
-0.02286
-0.02176
-0.01422
-0.0119
-0.01099
-0.00461
-0.00763
-0.00415
-0.00217
2.74658E-4
0.00693
0.00604
0.00491
-0.00275
-7.62939E-4
0.0069
0.0054
0.00748
0.01147
0.01358
0.01727
0.02869
0.02606
0.02728
0.03235
0.03397
0.04227
0.03769
0.03922
0.04245
0.04227
0.03537
0.03439
0.03827
0.0394
0.03357
0.02896
0.02271
0.02338
0.02271
0.02463
0.0228
0.01669
0.02341
0.02875
0.01996
0.0213
0.01328
0.01315
0.01624
0.00714
0.0097
0.0014
-0.0036
-0.00388
-0.00513
-0.0072
-0.0127
-0.01141
-0.01166
-0.02203
-0.01715
-0.02014
-0.02002
-0.01575
-0.01184
-0.01263
-0.01151
-0.00632
-0.01392
-0.01175
-0.00845
-0.00824
-0.01227
-0.01208
-0.01395
-0.01312
-0.01318
-0.01282
-0.01315
-0.00449
-0.01239
-0.01379
-0.0184
-0.00952
-0.01462
-0.01178
-0.0148
-0.0126
-0.01797
-0.01489
-0.01532
-0.0155
-0.01147
-0.01703
-0.01947
-0.01776
-0.01715
-0.02017
-0.02463
-0.02689
-0.02869
-0.03
-0.022
-0.02637
-0.02408
-0.03342
-0.03799
-0.02914
-0.02991
-0.03519
-0.03903
-0.043
-0.04156
-0.0354
-0.03827
-0.03741
-0.02676
-0.02481
-0.02606
-0.02353
-0.01379
-0.01215
-0.01358
-0.01791
-0.01852
-0.01306
-0.00201
0.00119
0.00162
0.00793
0.00424
0.00449
0.0148
0.01425
0.017
0.01611
0.02036
0.01834
0.02338
0.02652
0.02896
0.03033
0.02844
0.02737
0.03439
0.02829
0.02963
0.02036
0.02411
0.02478
0.02637
0.02377
0.02182
0.01993
0.01816
0.01138
0.01569
0.0123
0.01288
0.00668
0.00302
0.01416
0.00238
0.00909
0.00589
0.01071
0.01987
0.02094
0.0217
0.02246
0.02548
0.02057
0.01672
0.00458
0.00491
-0.00119
-0.00186
-0.0025
-0.00961
-0.00119
-0.01123
-0.00873
-0.01041
-0.01553
-0.01361
-0.01086
-0.01517
-0.01633
-0.01923
-0.02048
-0.0177
-0.01703
-0.02887
-0.03561
-0.03372
-0.03696
-0.03281
-0.04379
-0.04825
-0.0499
-0.0524
-0.04926
-0.04651
-0.0448
-0.04666
-0.05042
-0.04477
-0.03842
-0.03906
-0.04144
-0.03656
-0.04324
-0.0376
-0.03171
-0.03421
-0.02884
-0.0311
-0.02835
-0.01978
-0.02185
-0.02078
-0.01782
-0.01425
-0.01471
-0.01151
-0.00555
-0.01218
-0.00909
-0.00873
-0.01477
-0.0144
-0.00919
0.00116
-0.00311
8.54492E-4
0.00388
0.00656
0.01355
0.01788
0.01266
0.01343
0.0119
0.01727
0.01367
0.01657
0.0192
0.01782
0.01492
0.02039
0.02759
0.03253
0.02884
0.02734
0.02451
0.02646
0.02209
0.02139
0.0202
0.01093
0.00812
0.00732
0.0032
-0.00281
-0.0116
-0.02011
-0.01529
-0.01324
-0.02063
-0.02798
-0.03372
-0.03622
-0.0372
-0.04053
-0.04434
-0.04272
-0.04962
-0.05487
-0.05728
-0.05847
-0.06271
-0.0629
-0.05615
-0.05258
-0.0545
-0.04483
-0.03864
-0.03772
-0.02423
-0.02545
-0.02585
-0.01852
-0.01382
-0.01434
-0.01498
-0.01813
-0.01138
-0.01025
-0.01352
-0.01913
-0.021
-0.02319
-0.00851
-0.00504
-0.00305
-0.00275
-8.54492E-4
0.00198
0.00644
0.01074
0.00525
0.00153
0.00473
0.00699
0.00214
0.00229
-0.00839
-0.0087
-0.01645
-0.01453
-0.01065
-0.01215
-0.01141
-0.01346
-0.0127
-0.01282
-0.00537
-0.00433
-0.00562
-0.01004
-0.01007
-0.00357
-0.00952
-0.00259
-0.0054
-0.00488
-0.01312
-0.00995
-8.8501E-4
-0.00198
-0.00204
-0.00351
-0.00528
0.00436
0.00577
0.00812
0.00912
0.00952
0.00568
0.01343
0.00769
0.01569
0.01624
0.01822
0.00555
0.01617
0.01767
0.02029
0.02448
0.01682
0.01675
0.02051
0.02109
0.01962
0.02319
0.02267
0.01544
0.01605
0.01031
0.00369
0.00473
0.0094
0.00647
0.00546
0.00433
-0.0014
-0.00223
0.00394
0.01193
0.0101
0.01608
0.01843
0.0127
0.01794
0.0141
0.01877
0.02158
0.02673
0.02686
0.02139
0.01346
0.01648
0.01587
0.01843
0.01984
0.01794
0.02161
0.01675
0.02002
0.01468
0.00925
0.00531
0.00885
0.00766
0.00281
-9.76563E-4
-5.18799E-4
0.00308
-0.00476
-0.00281
-0.00769
-0.00424
-0.01208
-0.01544
-0.01099
-0.01807
-0.02322
-0.02966
-0.03607
-0.03876
-0.03879
-0.04068
-0.04517
-0.04031
-0.0423
-0.0307
-0.02954
-0.02884
-0.02997
-0.0379
-0.03275
-0.02438
-0.02942
-0.02228
-0.02771
-0.02731
-0.02194
-0.01859
-0.00497
-0.00552
-0.00632
0.00177
-0.00116
-5.79834E-4
0.00385
0.00732
0.00562
0.00589
0.00955
0.01086
0.01062
0.01361
0.01111
0.01004
0.01111
0.00967
0.01266
0.01431
0.01453
0.01193
0.01706
0.01675
0.01471
0.01794
0.01349
0.01352
0.01129
0.01273
0.0228
0.01303
0.00449
0.00513
-0.00266
0.00146
-0.00131
-0.00668
-0.00781
-0.00192
-0.00317
-0.00858
-0.01096
-0.01624
-0.01846
-0.02118
-0.01855
-0.02289
-0.03201
-0.03937
-0.03461
-0.03955
-0.04022
-0.04822
-0.05377
-0.05035
-0.05377
-0.06174
-0.05493
-0.0621
-0.05704
-0.05133
-0.04657
-0.04361
-0.04086
-0.0369
-0.03604
-0.04089
-0.03537
-0.02841
-0.02539
-0.02383
-0.02072
-0.02423
-0.03049
-0.02359
-0.01697
-0.01987
-0.02554
-0.02502
-0.02307
-0.02258
-0.02158
-0.02057
-0.02332
-0.02582
-0.0264
-0.02689
-0.02472
-0.02173
-0.02179
-0.01648
-0.02048
-0.01779
-0.01636
-0.01083
-0.02408
-0.02563
-0.02377
-0.01624
-0.02142
-0.02585
-0.03357
-0.02646
-0.02374
-0.01917
-0.01773
-0.01932
-0.01636
-0.02087
-0.01398
-0.01434
-0.00952
-0.01361
-0.01529
-0.01349
-0.01172
-0.00348
-0.00638
0.00287
-0.0014
-0.00488
0.00369
0.01334
0.01413
0.01862
0.02249
0.02017
0.02142
0.02563
0.02951
0.03531
0.03616
0.03815
0.03653
0.04141
0.04517
0.04584
0.04831
0.04761
0.05298
0.05682
0.05234
0.05167
0.05353
0.05292
0.05392
0.05142
0.05014
0.04642
0.04272
0.04077
0.03561
0.03549
0.03644
0.0347
0.04025
0.04169
0.04236
0.04004
0.04095
0.03
0.03955
0.04016
0.04242
0.04056
0.04205
0.043
0.03995
0.03214
0.0228
0.01718
0.02509
0.01816
0.01709
0.021
0.01596
0.01804
0.01926
0.01181
0.01645
0.00867
0.013
0.01285
0.0032
0.00409
-3.66211E-4
-7.93457E-4
5.49316E-4
-0.00186
-0.0072
-0.01199
-0.00842
-0.01199
-0.01175
-0.01016
-0.01535
-0.01498
-0.0188
-0.01834
-0.01871
-0.01318
-0.01831
-0.01935
-0.01755
-0.01285
-0.01443
-0.0152
-0.01974
-0.01746
-0.01212
-0.01373
-0.01816
-0.02313
-0.02084
-0.02005
-0.01385
-0.00742
-0.00412
0.00406
0.00281
0.00174
0.0097
0.01273
0.0087
0.01511
0.00882
0.01471
0.01651
0.02145
0.01981
0.01437
0.01776
0.022
0.02585
0.03439
0.03433
0.03098
0.04343
0.03967
0.04089
0.03528
0.03793
0.03427
0.03854
0.03281
0.03137
0.04041
0.03806
0.02872
0.02576
0.02859
0.02377
0.01886
0.01508
0.01456
0.01785
0.0148
0.01236
0.01736
0.01157
9.15527E-4
0.00363
0.00812
0.00345
-0.00568
-0.01212
-0.0184
-0.01672
-0.01703
-0.02063
-0.02567
-0.03281
-0.03793
-0.04214
-0.05142
-0.05826
-0.05408
-0.05298
-0.05286
-0.05569
-0.04956
-0.04785
-0.05225
-0.04526
-0.04135
-0.03915
-0.03397
-0.02722
-0.02063
-0.01849
-0.02417
-0.03247
-0.02002
-0.02408
-0.02301
-0.02823
-0.0275
-0.02448
-0.02484
-0.0173
-0.02289
-0.02652
-0.02182
-0.02127
-0.02164
-0.01877
-0.02573
-0.02582
-0.02332
-0.02444
-0.01877
-0.02405
-0.02594
-0.03564
-0.02853
-0.01913
-0.02628
-0.02994
-0.03308
-0.0253
-0.02417
-0.01764
-0.01715
-0.01938
-0.01788
-0.01361
-0.01547
-0.01389
-0.01312
-0.01291
-0.01303
-0.017
-0.01093
-0.00485
-8.8501E-4
0.00729
0.01025
0.01355
0.01691
0.02234
0.01996
0.02359
0.02551
0.02203
0.01935
0.02448
0.02478
0.0206
0.02335
0.01901
0.03287
0.02673
0.03345
0.02948
0.03088
0.03268
0.03452
0.03302
0.03091
0.03281
0.03641
0.03143
0.02994
0.02725
0.02936
0.02002
0.02112
0.02438
0.02463
0.02487
0.01828
0.01904
0.01587
0.01627
0.01556
0.01886
0.01697
0.01413
0.01077
0.01746
0.01276
0.0116
0.0097
0.0116
0.00732
0.01001
0.00131
0.0062
0.0079
0.0072
0.00986
0.00653
0.0108
0.01361
0.01126
0.00876
0.00595
0.00967
0.0098
0.00336
0.00198
-0.00208
-0.00696
-0.00644
-0.0101
-0.00699
-0.00775
-0.01303
-0.01129
-0.00842
-0.0127
-0.01276
-0.01776
-0.02594
-0.01993
-0.02322
-0.02258
-0.02554
-0.02637
-0.02942
-0.02075
-0.01944
-0.01859
-0.01813
-0.02353
-0.0231
-0.01392
-0.01514
-0.01251
-0.01804
-0.01746
-0.01196
-0.01682
-0.01239
-0.00604
-0.00159
-0.0033
0.00174
0.00784
0.0123
0.01669
0.0184
0.02075
0.01489
0.01828
0.02304
0.01831
0.01532
0.00806
0.01425
0.01126
0.00473
0.00244
-0.00568
-0.00516
-0.00989
-0.00452
-0.00531
-0.00397
-0.00635
-0.00867
-0.00272
-0.00693
-4.57764E-4
-0.00891
-0.00296
-0.00751
-0.00482
-0.01801
-0.01627
-0.01694
-0.02463
-0.02789
-0.02542
-0.02728
-0.02707
-0.02737
-0.02957
-0.03638
-0.03372
-0.03677
-0.04111
-0.04822
-0.05276
-0.05325
-0.05667
-0.06082
-0.06482
-0.06796
-0.06897
-0.07114
-0.06964
-0.07266
-0.06329
-0.06131
-0.05463
-0.05228
-0.04892
-0.04254
-0.03293
-0.03122
-0.03506
-0.03415
-0.03033
-0.02164
-0.02692
-0.02823
-0.02606
-0.02646
-0.02237
-0.01273
-0.01743
-0.02371
-0.02103
-0.02121
-0.01596
-0.02026
-0.01877
-0.02625
-0.02423
-0.02359
-0.02817
-0.02899
-0.02798
-0.03571
-0.0459
-0.04114
-0.04703
-0.05154
-0.05505
-0.05801
-0.0582
-0.05002
-0.04898
-0.05148
-0.05408
-0.05338
-0.05707
-0.05814
-0.05435
-0.06091
-0.06323
-0.07153
-0.0683
-0.06659
-0.06973
-0.0668
-0.06671
-0.06595
-0.06296
-0.0574
-0.0499
-0.04541
-0.04535
-0.04193
-0.03824
-0.03796
-0.03223
-0.02448
-0.02322
-0.0144
-0.01111
-0.01453
-0.01074
-0.00714
-0.00952
-0.01004
-0.00491
-0.00272
9.15527E-5
0.00275
0.00189
7.62939E-4
0.00809
0.01489
0.01147
0.01425
0.01956
0.01865
0.01935
0.0257
0.02875
0.02673
0.02292
0.02509
0.03064
0.03177
0.03366
0.0322
0.03326
0.03925
0.04349
0.04886
0.05652
0.05362
0.04968
0.05588
0.06259
0.05957
0.06723
0.06995
0.07556
0.07501
0.06628
0.06131
0.05518
0.05273
0.04913
0.04883
0.05051
0.04929
0.04852
0.04456
0.04611
0.04852
0.04355
0.047
0.04327
0.02979
0.02982
0.02975
0.02744
0.02881
0.02441
0.02216
0.01971
0.01929
0.01736
0.01431
0.00958
0.00626
0.00333
-0.0036
0.00293
-0.00439
-0.00357
-0.00742
-0.00317
0.00259
0.00775
0.00833
0.00372
0.00134
0.00183
0.00333
0.00858
0.00592
0.00912
0.00677
0.00995
0.01883
0.01767
0.02084
0.02411
0.02487
0.02649
0.03397
0.03519
0.0423
0.04254
0.0397
0.03943
0.04593
0.04559
0.04807
0.04477
0.0415
0.04004
0.04935
0.04431
0.04498
0.05029
0.04861
0.04892
0.05276
0.04916
0.0553
0.04919
0.04846
0.04666
0.04675
0.05392
0.05029
0.04623
0.0412
0.04584
0.05136
0.05203
0.0524
0.05084
0.05237
0.04926
0.04602
0.04355
0.05219
0.04626
0.0379
0.02908
0.02875
0.01178
0.00552
0.00214
-0.00375
-0.00378
-0.0087
-0.01147
-0.0177
-0.01334
-0.01971
-0.02414
-0.02274
-0.0224
-0.01523
-0.01584
-0.01279
-0.01212
-0.00958
-0.0097
-0.00897
-0.01282
-0.01038
-0.01263
-0.0126
-0.01279
-0.01578
-0.01901
-0.01852
-0.01019
-0.01227
-0.01663
-0.01639
-0.01877
-0.0148
-0.01581
-0.01999
-0.02124
-0.02783
-0.02283
-0.03018
-0.02957
-0.03809
-0.03735
-0.03961
-0.04059
-0.03931
-0.04269
-0.04822
-0.05423
-0.0571
-0.05597
-0.04974
-0.05112
-0.06226
-0.06058
-0.05756
-0.05646
-0.05902
-0.05652
-0.06534
-0.05078
-0.05688
-0.05945
-0.05139
-0.05478
-0.0491
-0.04712
-0.04865
-0.04984
-0.0412
-0.03409
-0.03281
-0.02838
-0.02173
-0.01892
-0.01093
-0.01068
-0.00769
-0.01147
-0.00507
-0.00412
-0.00458
-0.00168
6.71387E-4
5.18799E-4
0.00858
0.00763
0.01004
0.0163
0.01364
0.01266
0.01514
0.01804
0.01407
0.01743
0.01816
0.01199
0.01434
0.0126
0.01178
0.00449
0.009
0.00305
0.00916
0.00665
0.00967
0.00778
0.01111
0.00909
0.01382
0.01422
0.0152
0.01773
0.01794
0.01892
0.02188
0.02237
0.02322
0.02838
0.03348
0.0275
0.02118
0.0061
0.00775
-0.00195
0.0047
7.62939E-4
0
0.00198
-4.27246E-4
-0.00253
-0.00259
-0.0036
-0.00192
7.32422E-4
-0.00674
-0.01096
-0.01291
-0.01117
-0.00702
-0.00995
-0.00964
-0.02121
-0.02124
-0.02045
-0.01743
-0.02374
-0.03165
-0.03122
-0.03348
-0.02417
-0.02533
-0.02777
-0.02399
-0.02783
-0.02563
-0.0249
-0.01617
-0.01907
-0.02954
-0.0278
-0.02762
-0.03085
-0.02844
-0.02789
-0.02893
-0.02722
-0.02335
-0.01669
-0.01074
-0.01764
-0.00641
-0.01547
-0.00342
-0.00146
0.00366
0.01102
0.00397
0.00223
0.00397
0.00912
0.00696
0.0069
0.00931
0.00488
0.00842
0.00989
0.00525
0.00937
0.00809
0.00809
0.00467
0.00717
0.01114
0.00745
0.00558
-0.00299
0.0051
0.00491
0.00906
0.00519
2.44141E-4
2.13623E-4
0.00339
0.00598
0.00815
-0.00235
-0.0043
-0.00711
-0.00107
-0.00159
-1.83105E-4
-0.00516
-0.01419
-0.00864
-0.01434
-0.01584
-0.01883
-0.02402
-0.02512
-0.02222
-0.02386
-0.03207
-0.03314
-0.02911
-0.02609
-0.02542
-0.02145
-0.02106
-0.00644
0.01016
0.00476
0.00681
0.01074
0.00903
9.15527E-5
-0.00403
-0.00299
-0.00424
-0.00418
-0.01556
-0.01257
-0.01865
-0.02417
-0.02603
-0.02988
-0.03345
-0.04446
-0.04532
-0.05115
-0.05145
-0.05029
-0.05133
-0.05774
-0.05545
-0.0538
-0.0466
-0.04422
-0.04846
-0.04752
-0.0466
-0.03989
-0.02905
-0.02728
-0.02267
-0.02536
-0.02304
-0.01385
-0.00848
-0.00574
-0.01093
-0.00684
-0.00598
-5.18799E-4
0.00128
8.23975E-4
-0.00919
-0.00879
-0.01169
-0.01141
-0.00424
-0.00671
-0.01437
-0.01749
-0.02353
-0.03241
-0.03156
-0.02539
-0.03381
-0.03735
-0.03165
-0.02753
-0.02399
-0.0148
-0.01376
-0.01505
-0.00409
0.0014
0.00757
0.01852
0.03433
0.04489
0.06
0.07883
0.09756
0.11688
0.13074
0.15115
0.16129
0.16681
0.17831
0.18143
0.19159
0.1824
0.17758
0.18027
0.17429
0.1611
0.15079
0.1423
0.12424
0.11746
0.10309
0.08139
0.0632
0.03995
0.03061
0.01767
-0.00708
-0.03348
-0.04623
-0.06082
-0.07074
-0.08554
-0.09134
-0.10559
-0.10593
-0.11893
-0.12534
-0.13492
-0.14499
-0.15152
-0.15778
-0.16537
-0.16754
-0.17023
-0.17682
-0.18253
-0.17975
-0.18259
-0.18161
-0.18784
-0.19595
-0.19714
-0.20004
-0.19693
-0.20309
-0.20532
-0.21152
-0.20471
-0.19745
-0.19067
-0.17313
-0.16592
-0.15039
-0.13507
-0.10901
-0.08334
-0.06488
-0.04211
-0.01874
0.00162
0.03076
0.05179
0.0755
0.08542
0.09964
0.10004
0.1088
0.11453
0.11545
0.12289
0.11795
0.12057
0.12622
0.12668
0.13638
0.14014
0.13962
0.14969
0.15503
0.1666
0.17694
0.18842
0.19785
0.20053
0.20596
0.21228
0.21768
0.21191
0.21231
0.20795
0.20264
0.19946
0.19113
0.17603
0.16235
0.15442
0.13544
0.11838
0.09937
0.08112
0.06284
0.04617
0.02838
0.02438
0.0134
3.35693E-4
-0.01865
-0.02835
-0.03119
-0.02817
-0.03702
-0.04361
-0.04062
-0.04153
-0.03973
-0.04404
-0.05017
-0.04993
-0.05118
-0.04822
-0.04221
-0.03592
-0.02838
-0.02615
-0.02957
-0.02783
-0.02664
-0.0336
-0.04474
-0.05313
-0.06192
-0.08252
-0.10541
-0.12073
-0.12918
-0.14862
-0.1619
-0.185
-0.20224
-0.22244
-0.24158
-0.26672
-0.28897
-0.3056
-0.32214
-0.34213
-0.35248
-0.3703
-0.38452
-0.38428
-0.3847
-0.39487
-0.41318
-0.41599
-0.41769
-0.41434
-0.40521
-0.4017
-0.39249
-0.37357
-0.34402
-0.30524
-0.26581
-0.22745
-0.18658
-0.14496
-0.0928
-0.04541
-0.00317
0.03976
0.07825
0.11691
0.16693
0.21457
0.2493
0.28232
0.31223
0.34576
0.37387
0.39795
0.41351
0.42645
0.43048
0.43646
0.43546
0.42163
0.41113
0.39108
0.37271
0.35211
0.33493
0.32101
0.30914
0.29352
0.27396
0.27081
0.26398
0.26385
0.2554
0.25711
0.25235
0.25247
0.25687
0.25201
0.24948
0.24179
0.23517
0.23206
0.22858
0.22839
0.22299
0.21112
0.20145
0.1936
0.18802
0.17203
0.16113
0.1424
0.13156
0.11383
0.09592
0.07263
0.05365
0.03586
0.02664
0.00998
-0.00845
-0.03342
-0.04398
-0.06104
-0.08377
-0.10144
-0.12802
-0.15103
-0.18127
-0.21375
-0.24161
-0.28488
-0.3158
-0.35898
-0.40683
-0.44968
-0.50055
-0.5578
-0.59793
-0.63187
-0.64514
-0.64459
-0.6301
-0.61292
-0.58069
-0.55087
-0.51013
-0.45892
-0.40909
-0.35379
-0.30237
-0.25098
-0.20334
-0.15515
-0.10556
-0.06293
-0.0256
0.00656
0.02267
0.04541
0.06937
0.08093
0.08423
0.08505
0.07748
0.07529
0.07864
0.07947
0.07635
0.07004
0.07098
0.06604
0.06293
0.05756
0.05426
0.04266
0.03677
0.03152
0.02963
0.02368
0.01254
4.57764E-4
-0.00989
-0.01889
-0.02924
-0.02896
-0.02838
-0.02304
-0.01981
-0.00235
0.01691
0.04382
0.06622
0.08856
0.1124
0.14587
0.18588
0.21359
0.2493
0.27948
0.31128
0.34485
0.36966
0.39621
0.41104
0.43192
0.45453
0.46887
0.47739
0.47821
0.479
0.46387
0.44641
0.42252
0.40427
0.37555
0.33487
0.31274
0.27896
0.24677
0.22552
0.1911
0.17059
0.15411
0.13919
0.12537
0.11243
0.10403
0.09802
0.08585
0.08023
0.07712
0.06937
0.07104
0.06802
0.07166
0.0697
0.0657
0.07138
0.06339
0.05884
0.05646
0.04645
0.04074
0.03296
0.03622
0.03726
0.02444
0.01233
-4.57764E-4
-0.00684
-0.02325
-0.04657
-0.06213
-0.07904
-0.10144
-0.11908
-0.14783
-0.17508
-0.20218
-0.22266
-0.24814
-0.27127
-0.2926
-0.31552
-0.33649
-0.34622
-0.36264
-0.37991
-0.38846
-0.38974
-0.39041
-0.38995
-0.38898
-0.40186
-0.40573
-0.41046
-0.41498
-0.41006
-0.41367
-0.40921
-0.40189
-0.39151
-0.38266
-0.36081
-0.35657
-0.34671
-0.33264
-0.32025
-0.3063
-0.29333
-0.28696
-0.28036
-0.27481
-0.26807
-0.2597
-0.26089
-0.24896
-0.23621
-0.23669
-0.22787
-0.21317
-0.19348
-0.18674
-0.17282
-0.16574
-0.15598
-0.13968
-0.13162
-0.12473
-0.11786
-0.11301
-0.10983
-0.09659
-0.08572
-0.07361
-0.07126
-0.06308
-0.04617
-0.02264
-0.00226
0.0152
0.02838
0.05548
0.07422
0.10294
0.11734
0.13324
0.14484
0.15997
0.18423
0.19421
0.1991
0.20956
0.22534
0.24252
0.25375
0.27353
0.28796
0.30066
0.32422
0.34738
0.37112
0.39932
0.41882
0.45062
0.47937
0.50003
0.5256
0.54868
0.56973
0.58932
0.60083
0.60309
0.60327
0.60626
0.60083
0.59326
0.59274
0.5687
0.56067
0.54013
0.51962
0.49832
0.48611
0.4718
0.45001
0.42044
0.3916
0.36572
0.33752
0.31424
0.28336
0.2536
0.22418
0.1929
0.16083
0.13736
0.10358
0.06586
0.02582
-0.00159
-0.02914
-0.05875
-0.09149
-0.12387
-0.1525
-0.18582
-0.20331
-0.23123
-0.25687
-0.28986
-0.32086
-0.34595
-0.35941
-0.38098
-0.4032
-0.42371
-0.43481
-0.44455
-0.46167
-0.48047
-0.48334
-0.49136
-0.49893
-0.50772
-0.50952
-0.51526
-0.52118
-0.53091
-0.53931
-0.54361
-0.53705
-0.53958
-0.53937
-0.54037
-0.53174
-0.5144
-0.50027
-0.48346
-0.46646
-0.44266
-0.41708
-0.38898
-0.3566
-0.33221
-0.29553
-0.26923
-0.25003
-0.21677
-0.18332
-0.14926
-0.13489
-0.10004
-0.07336
-0.04285
-0.01205
0.01138
0.03656
0.06378
0.09439
0.12436
0.14313
0.16385
0.18304
0.20157
0.21838
0.24188
0.24408
0.25528
0.26688
0.27798
0.28775
0.29709
0.30722
0.31384
0.32333
0.32767
0.32538
0.32932
0.33286
0.34857
0.35129
0.34308
0.34125
0.34515
0.3269
0.33142
0.32117
0.3139
0.30447
0.29169
0.28076
0.26288
0.24777
0.23813
0.22614
0.21368
0.19128
0.17618
0.16632
0.15155
0.14148
0.12759
0.10828
0.09421
0.07718
0.06516
0.05151
0.03232
0.01187
-0.00421
-0.0206
-0.03168
-0.04584
-0.06891
-0.08566
-0.10471
-0.11603
-0.12204
-0.13239
-0.14658
-0.16809
-0.17892
-0.185
-0.19092
-0.19907
-0.20786
-0.21939
-0.23138
-0.23721
-0.24722
-0.24966
-0.2569
-0.26105
-0.27054
-0.27371
-0.27179
-0.2699
-0.26758
-0.27264
-0.27155
-0.26913
-0.25934
-0.25006
-0.24826
-0.24927
-0.24521
-0.23447
-0.22833
-0.21951
-0.20801
-0.19995
-0.18478
-0.17041
-0.15283
-0.14117
-0.12714
-0.10721
-0.09766
-0.07687
-0.06369
-0.05054
-0.03931
-0.03064
-0.01105
-0.00369
-0.00101
0.00803
0.01727
0.02237
0.0285
0.04691
0.04364
0.06384
0.06213
0.07416
0.08365
0.09238
0.09818
0.10187
0.10464
0.12146
0.12689
0.13297
0.14279
0.1431
0.159
0.16666
0.15634
0.15302
0.15387
0.15887
0.15717
0.15216
0.15271
0.14624
0.14505
0.13687
0.13184
0.12802
0.12253
0.12256
0.11435
0.10583
0.09958
0.09213
0.08401
0.08405
0.06467
0.06424
0.05191
0.04385
0.04031
0.03021
0.01749
0.0072
0.00427
-0.00375
-0.00967
-0.01279
-0.02045
-0.02106
-0.02365
-0.0144
-0.01324
-0.01871
-0.03183
-0.02963
-0.0322
-0.02972
-0.03452
-0.04019
-0.04626
-0.04526
-0.03671
-0.03525
-0.02884
-0.02518
-0.01883
-0.02103
-0.01434
-0.01459
-0.00629
-0.00476
-9.15527E-4
-0.0033
-0.00589
-0.00165
0.00485
-0.00601
-0.00375
0.00711
0.01474
0.01962
0.01935
0.02924
0.034
0.039
0.0379
0.04074
0.04425
0.04291
0.0455
0.04321
0.04279
0.05045
0.05505
0.05325
0.04581
0.04932
0.04105
0.04944
0.04919
0.04434
0.04349
0.04501
0.04846
0.04514
0.04135
0.03177
0.02829
0.03778
0.02856
0.0206
0.01337
0.00882
0.00833
-3.35693E-4
-0.00583
-0.00995
-0.01282
-0.0192
-0.01871
-0.02402
-0.03345
-0.03098
-0.03333
-0.02841
-0.02866
-0.02795
-0.02444
-0.0162
-0.01868
-0.02374
-0.02719
-0.03043
-0.02386
-0.02921
-0.02301
-0.03351
-0.03253
-0.03482
-0.04062
-0.03711
-0.04099
-0.04797
-0.04633
-0.04373
-0.04224
-0.04547
-0.05011
-0.04843
-0.05542
-0.04202
-0.04272
-0.0386
-0.04556
-0.0462
-0.04666
-0.04596
-0.05469
-0.05383
-0.06628
-0.06656
-0.05899
-0.0524
-0.05008
-0.05447
-0.05298
-0.04837
-0.03574
-0.03754
-0.0354
-0.03876
-0.03021
-0.03406
-0.02628
-0.02942
-0.01508
-0.01553
-0.01834
-0.02435
-0.01608
-0.00806
-0.00363
-0.00671
-0.00613
0.00467
0.00464
0.005
0.01004
0.00455
0.00409
0.01205
0.00833
0.01373
0.01126
0.01727
0.02252
0.02597
0.03122
0.02939
0.03387
0.03329
0.02936
0.03818
0.03278
0.03036
0.02429
0.02292
0.0177
0.01901
0.02444
0.01978
0.01022
0.00781
0.00909
0.01297
0.01031
0.0148
0.01273
0.00574
0.01022
0.01251
0.01227
0.01077
0.01587
0.01306
0.01193
0.01212
0.01077
0.01718
0.01666
0.02054
0.01862
0.00714
0.00961
0.00427
0.00412
0.00323
0.0022
0.00421
0.00296
-0.00522
-0.00525
-0.0101
-0.01404
-0.00519
-0.01154
-0.01639
-0.02292
-0.02808
-0.02542
-0.02628
-0.03815
-0.03842
-0.04611
-0.0477
-0.04279
-0.04056
-0.03839
-0.04517
-0.04675
-0.04236
-0.04025
-0.03384
-0.03336
-0.03775
-0.03366
-0.02795
-0.02081
-0.0162
-0.01456
-0.01514
-0.02026
-0.01688
-0.01663
-0.01343
-0.01456
-0.01288
-0.01584
-0.00958
-0.00476
-9.46045E-4
-0.00113
0.00394
-6.10352E-5
2.13623E-4
0.0163
0.01285
0.01788
0.02472
0.01779
0.022
0.01901
0.0264
0.02969
0.03073
0.0246
0.02243
0.03024
0.02936
0.02881
0.02625
0.02686
0.03094
0.03329
0.03116
0.02631
0.02744
0.03055
0.0318
0.03622
0.03644
0.04016
0.03427
0.02615
0.02792
0.02982
0.02991
0.02875
0.02814
0.02582
0.03036
0.03302
0.02515
0.02448
0.0199
0.01074
0.0087
5.79834E-4
-0.00281
-0.01309
-0.0144
-0.01804
-0.0246
-0.02805
-0.03046
-0.03839
-0.03754
-0.04459
-0.04529
-0.04794
-0.04355
-0.03506
-0.03284
-0.03235
-0.03464
-0.03644
-0.02859
-0.02859
-0.02927
-0.0296
-0.02676
-0.02335
-0.02737
-0.02588
-0.02844
-0.02179
-0.01364
-0.01584
-0.01447
-0.01907
-0.01364
-0.01132
-0.00766
-0.00537
-0.00909
-0.01279
-0.01236
-0.00488
-0.00726
-0.01108
-0.00858
-0.0238
-0.01721
-0.01889
-0.02127
-0.02554
-0.02982
-0.03412
-0.03036
-0.01996
-0.02295
-0.01883
-0.02594
-0.02353
-0.03024
-0.01663
-0.02191
-0.02249
-0.02005
-0.01901
-0.01624
-0.01288
-0.01248
-0.01617
-0.01373
-0.01639
-0.0162
-0.01382
-0.01306
-0.01102
-0.01474
-0.00772
-0.00348
-0.00647
-0.00375
-0.00165
-0.0065
-0.00708
-0.00763
-0.01184
-0.00397
-0.00549
-0.00189
0.00272
4.88281E-4
2.13623E-4
0.01056
0.01865
0.01901
0.02011
0.02679
0.02237
0.02249
0.02695
0.02017
0.01889
0.01685
0.01794
0.01172
0.01459
0.01105
0.01477
0.01236
0.01746
0.02097
0.02066
0.02023
0.02457
0.02991
0.03171
0.03366
0.03
0.03162
0.04419
0.04138
0.03979
0.04291
0.0477
0.04654
0.04129
0.02914
0.02301
0.01917
0.02274
0.01593
0.01575
0.01328
0.01907
0.01801
0.0152
0.01447
0.01852
0.0188
0.01776
0.00931
0.01025
0.01111
0.00836
0.02081
0.01608
0.0141
0.00537
0.00635
0.005
0.00681
3.35693E-4
-0.01157
-0.01221
-0.02017
-0.02264
-0.02344
-0.02362
-0.02487
-0.03119
-0.03021
-0.0271
-0.02698
-0.02222
-0.02292
-0.01724
-0.01602
-0.01175
-0.00812
-0.01193
-0.00925
-0.00342
-0.00366
9.15527E-4
0.00302
0.00522
0.00513
-0.00427
-8.54492E-4
0.0105
0.01199
0.01431
0.0108
0.0101
0.01151
0.01678
0.01834
0.01129
0.00961
0.00671
0.00659
-6.10352E-5
0.00177
-0.00156
0.00201
0.0043
0.00247
-0.00717
-0.00735
-0.00836
-5.49316E-4
4.57764E-4
0.00281
-0.00198
0.0029
-0.00247
-0.0022
-0.0043
-0.00381
0.00388
-5.79834E-4
-0.00674
-0.00446
-0.00189
-0.00226
-0.00714
-0.01038
-0.00894
-0.01175
-0.01459
-0.02069
-0.02689
-0.03561
-0.03699
-0.03564
-0.03366
-0.03949
-0.04941
-0.04568
-0.0463
-0.05106
-0.05139
-0.05084
-0.04736
-0.04718
-0.04276
-0.03885
-0.03293
-0.03864
-0.03281
-0.0274
-0.0256
-0.01889
-0.01288
-0.01697
-0.01514
-0.01123
-0.01498
-0.0148
-0.00793
-0.00629
-0.00577
-0.01215
-0.01135
-0.00732
3.66211E-4
-6.40869E-4
0.0011
-0.00986
-0.0083
-0.00961
-0.00873
-0.00882
-0.01373
-0.0155
-0.0155
-0.01349
-0.01715
-0.02081
-0.02002
-0.02679
-0.03064
-0.02051
-0.0217
-0.02023
-0.02274
-0.02838
-0.02417
-0.01907
-0.0224
-0.022
-0.02853
-0.03104
-0.02786
-0.02167
-0.02533
-0.02579
-0.02609
-0.02603
-0.02206
-0.02432
-0.01978
-0.01019
-0.01288
-0.01508
-0.0119
-0.00131
0.00684
0.01245
0.01358
0.01315
0.008
0.01135
0.00903
0.00467
0.01404
0.00156
0.0083
0.00876
0.01105
0.01672
0.01645
0.01334
0.01306
0.02121
0.02051
0.0191
0.02029
0.01157
0.01962
0.02322
0.02097
0.01608
0.0181
0.01196
0.0166
0.01028
0.01462
0.0123
0.01459
0.02066
0.02759
0.0282
0.02295
0.03607
0.02945
0.03439
0.03647
0.04135
0.0394
0.05075
0.05127
0.04407
0.04077
0.02676
0.02887
0.02148
0.02234
0.01987
0.01843
0.0166
0.0166
0.00757
0.00607
0.00806
0.01331
0.01572
0.00662
0.01172
0.00699
0.00885
0.00797
0.00812
0.00616
0.0022
0.00558
0.00818
0.01328
0.00577
0.00391
-0.00247
-0.00662
-0.00864
-0.00336
-0.00351
-0.00546
1.52588E-4
-0.00342
0.00476
0.00925
0.00214
-0.00656
-0.01349
-0.00775
-0.00851
-0.01132
-0.00751
-0.01007
-0.00778
-0.00464
-0.00806
-0.0058
-0.0062
-0.00516
-0.00729
-0.0011
-0.0127
-0.00305
-0.00299
-0.00568
-0.00778
-0.01099
-0.00766
-0.01062
-0.01047
-0.01172
-0.00647
-0.00528
-0.0054
-0.00195
0.00803
0.00424
0.00217
0.01114
0.00775
0.01172
0.01624
0.00964
0.0123
0.01566
0.02438
0.02728
0.02139
0.01801
0.01947
0.02094
0.0217
0.02466
0.02023
0.01318
0.01495
0.01648
0.01352
0.01306
0.00665
0.01031
0.00497
0.00992
0.0065
0.00143
-0.0061
-0.00598
-0.01505
-0.0224
-0.02036
-0.02524
-0.02136
-0.02911
-0.03882
-0.04495
-0.04715
-0.03989
-0.03458
-0.04053
-0.03995
-0.03867
-0.03882
-0.04514
-0.04559
-0.04858
-0.0509
-0.04608
-0.03955
-0.03824
-0.04007
-0.03629
-0.03699
-0.0209
-0.02322
-0.02014
-0.02524
-0.02628
-0.01443
-0.00397
-0.00891
-0.01395
-0.01184
-0.01163
-0.00351
-5.49316E-4
-0.00119
-0.013
-0.01178
-0.01532
-0.01367
-0.01349
-0.02692
-0.02435
-0.03073
-0.03473
-0.03204
-0.02911
-0.03296
-0.03531
-0.04007
-0.03601
-0.03088
-0.0332
-0.0354
-0.0394
-0.03836
-0.03394
-0.03052
-0.03159
-0.03073
-0.02875
-0.02826
-0.02716
-0.02115
-0.01617
-0.01321
-0.01685
-0.01556
-0.00641
-0.00424
-0.00461
-0.00186
0.00275
0.00412
0.00421
0.0079
0.00845
0.00363
0.01096
0.01047
0.0127
0.00916
0.01895
0.01865
0.01788
0.01459
0.02078
0.02155
0.01871
0.01846
0.01443
0.01514
0.01715
0.01776
0.01468
0.01666
0.02148
0.02957
0.03156
0.02859
0.02771
0.03381
0.04074
0.04205
0.04703
0.04962
0.04556
0.04816
0.05457
0.05557
0.05151
0.05518
0.05469
0.05655
0.05844
0.0531
0.04568
0.03802
0.03592
0.03397
0.0311
0.03287
0.02979
0.01547
0.01285
0.0137
0.01379
0.01334
0.0144
0.00674
-0.00467
-0.01154
-0.01163
-0.01559
-0.02222
-0.0274
-0.02933
-0.03073
-0.03156
-0.03763
-0.03928
-0.04013
-0.04233
-0.04752
-0.04745
-0.04742
-0.04276
-0.03943
-0.0419
-0.03391
-0.03265
-0.0242
-0.02228
-0.02954
-0.02594
-0.02237
-0.02557
-0.02173
-0.01926
-0.02054
-0.02292
-0.01898
-0.01324
-0.01831
-0.0155
-0.01312
-0.00623
-0.0094
-0.00702
0.00229
-0.00284
0.00189
0.00449
-0.00693
0.005
0.00616
0.00851
0.00534
0.00598
0.00668
0.00525
0.01007
0.00323
0.00302
0.00702
0.00671
0.00439
0.00421
0.00528
0.00598
0.00876
0.00369
0.00607
0.0076
0.00705
-0.00262
-0.00403
-0.00653
-0.00735
-0.01212
-0.00958
-0.01715
-0.0141
-0.0076
-0.00775
-0.00903
-0.00687
-0.00916
-0.00729
-0.00821
-0.01184
-0.00977
-0.01956
-0.02225
-0.03024
-0.03381
-0.03391
-0.03995
-0.04712
-0.04218
-0.04791
-0.04269
-0.0466
-0.04666
-0.03738
-0.03912
-0.03699
-0.02664
-0.02005
-0.01517
-0.0137
-0.01859
-0.00928
-0.01077
-0.01047
-0.00919
-0.01123
-0.01184
-0.0116
-0.00986
-0.00851
-0.004
-0.0144
-0.01031
-0.01196
-0.01755
-0.0094
-0.01624
-0.02441
-0.0336
-0.03656
-0.03656
-0.03613
-0.03204
-0.03345
-0.03622
-0.03793
-0.03867
-0.03931
-0.04129
-0.04639
-0.04456
-0.04776
-0.04535
-0.0419
-0.04486
-0.04684
-0.04688
-0.04437
-0.03201
-0.03812
-0.03687
-0.04126
-0.03857
-0.03467
-0.03519
-0.02505
-0.02817
-0.02969
-0.02866
-0.02789
-0.01871
-0.01578
-0.01636
-0.01208
-0.00577
-0.00143
0.00912
0.00809
0.01245
0.01376
0.01047
0.01303
0.00851
0.00623
0.01016
0.01437
0.0097
0.01285
0.01492
0.01401
0.01169
0.01407
0.01987
0.02277
0.01816
0.02115
0.01929
0.0144
0.00983
0.01044
0.01129
0.0076
0.0083
0.00558
0.00406
0.00952
0.01413
0.01776
0.01846
0.01556
0.02573
0.02783
0.0321
0.03403
0.03534
0.03824
0.03683
0.03406
0.03802
0.03625
0.03998
0.03323
0.03061
0.02411
0.02475
0.02191
0.01804
0.01929
0.01743
0.01514
0.01099
0.00626
0.00656
9.76563E-4
0.00354
0.00787
0.00821
0.00729
0.00262
0.00232
0.00223
0.00406
-5.49316E-4
-0.00299
-0.00821
-0.01038
-0.013
-0.01312
-0.01508
-0.01855
-0.02405
-0.01895
-0.02246
-0.01578
-0.02423
-0.02435
-0.02408
-0.01306
-0.01639
-0.01868
-0.02359
-0.02609
-0.02097
-0.0213
-0.01343
-0.01584
-0.01733
-0.01901
-0.01318
-0.01102
-0.00635
0.00128
0.00311
0.00806
0.00787
0.01031
0.01395
0.02209
0.02298
0.01315
0.01218
0.0126
0.01367
0.01212
0.00992
0.00803
0.00589
0.01279
0.00824
0.01352
0.01227
0.01712
0.01587
0.00763
0.01923
0.01685
0.02225
0.01459
0.01898
0.02042
0.02667
0.03204
0.01959
0.01761
0.01636
0.02094
0.026
0.03339
0.02084
0.03027
0.02957
0.03723
0.02954
0.02917
0.03
0.02634
0.02551
0.01959
0.01724
0.01364
0.01755
0.01233
0.00696
0.00708
0.00897
0.00134
-0.0043
-0.00595
-0.00992
-0.01297
-0.01358
-0.01312
-0.01532
-0.00714
-0.0033
-0.00937
-0.00696
-0.01227
-0.0051
-0.00745
-0.00586
-0.00912
-0.01208
-0.01141
-0.0162
-0.0141
-0.01254
-0.0152
-0.02185
-0.02454
-0.02603
-0.02103
-0.02386
-0.02856
-0.02396
-0.02496
-0.02509
-0.0257
-0.02048
-0.01956
-0.02216
-0.02341
-0.02304
-0.02097
-0.01813
-0.02905
-0.03024
-0.03384
-0.02957
-0.02567
-0.03
-0.03036
-0.03784
-0.03247
-0.03494
-0.02481
-0.02133
-0.03226
-0.03467
-0.02728
-0.03406
-0.03165
-0.02951
-0.02689
-0.02768
-0.03128
-0.02838
-0.02917
-0.02567
-0.0242
-0.02252
-0.02264
-0.01981
-0.01874
-0.01178
-0.00519
-0.00748
-0.00488
-0.00592
-0.00198
-5.18799E-4
3.35693E-4
0.00705
0.00443
0.00726
0.00644
0.01773
0.02048
0.02429
0.01807
0.02573
0.03125
0.02829
0.03741
0.03644
0.02994
0.03998
0.04144
0.0361
0.03601
0.03101
0.0267
0.02722
0.02942
0.02258
0.02219
0.02701
0.02554
0.03458
0.03122
0.03064
0.03094
0.02963
0.02924
0.0343
0.03354
0.03333
0.03247
0.0329
0.03146
0.02353
0.02402
0.02094
0.01999
0.02039
0.02026
0.02304
0.01276
0.01199
0.01495
0.01648
0.01443
0.01007
0.01096
0.00363
-0.00198
-0.00137
0.0011
-0.0015
-0.00549
-0.01395
-0.01788
-0.02621
-0.02319
-0.01657
-0.02277
-0.02734
-0.03064
-0.03226
-0.02359
-0.02484
-0.02393
-0.0246
-0.02808
-0.01785
-0.01865
-0.0127
-0.01657
-0.01685
-0.01868
-0.02414
-0.02084
-0.02237
-0.02072
-0.02319
-0.01724
-0.01123
-0.00943
-0.01187
-0.01251
-0.01239
-0.01489
-0.01932
-0.01834
-0.01187
-0.01068
-0.00885
-0.01541
-0.00665
-0.00214
0.00293
0.00327
0.00131
0.00204
0.00995
0.00681
0.01413
0.00848
0.0101
0.01038
0.01221
0.00906
0.01675
0.01083
0.01172
0.01041
0.0065
0.01144
0.01913
0.0112
0.00369
0.00369
0.00146
0.00418
0.00296
-0.00195
-0.0036
-0.00464
-0.00177
-0.0079
-0.01364
-0.00757
-0.01498
-0.01712
-0.0184
-0.01581
-0.01993
-0.02148
-0.03018
-0.02756
-0.02686
-0.02924
-0.02878
-0.03253
-0.03497
-0.03937
-0.04462
-0.04434
-0.04163
-0.0354
-0.03424
-0.03244
-0.02737
-0.02789
-0.0285
-0.02866
-0.02145
-0.02167
-0.01703
-0.01416
-0.02133
-0.01068
-0.01138
-0.01398
-0.00946
-0.00891
-0.00793
-0.00989
-0.00995
-0.01242
-0.00632
-0.00723
-0.01367
-0.01361
-0.01031
-0.01221
-0.00861
-0.01987
-0.02017
-0.02194
-0.01749
-0.02194
-0.02454
-0.03671
-0.04352
-0.04233
-0.04056
-0.04044
-0.03528
-0.0416
-0.04797
-0.04721
-0.03625
-0.04074
-0.039
-0.03882
-0.03973
-0.034
-0.03165
-0.03363
-0.02875
-0.03537
-0.02765
-0.02887
-0.03479
-0.0322
-0.02365
-0.02094
-0.02304
-0.01526
-0.00809
-0.00595
-0.00534
-0.00534
-0.00751
-0.00977
-0.01114
-0.01096
-0.01443
-0.00589
-0.00586
0.00226
-0.00366
0.00278
0.01108
0.01065
0.01758
0.01593
0.01828
0.01883
0.01535
0.01703
0.01434
0.0054
0.0058
3.96729E-4
3.66211E-4
0.00256
0.00491
0.00403
0.00412
0.00363
0.00217
0.00293
0.00113
0.00635
0.01089
0.00827
0.01349
0.01263
0.01093
0.0166
0.01343
0.00955
0.01385
0.01889
0.01865
0.01306
0.01096
0.00671
0.00461
0.00226
0.00195
6.71387E-4
-0.00348
-0.00549
-0.00296
-0.00458
-0.00595
-0.00708
-0.00833
-0.0137
-0.01947
-0.01822
-0.01389
-0.01248
-0.01328
-0.01285
-0.01855
-0.01117
-0.0195
-0.01294
-0.01697
-0.02869
-0.03119
-0.03036
-0.02332
-0.02359
-0.02908
-0.02661
-0.03024
-0.03012
-0.02502
-0.01837
-0.02313
-0.02667
-0.02286
-0.02145
-0.02283
-0.02109
-0.01743
-0.02206
-0.01468
-0.01053
-0.00735
-0.0076
-0.00296
0.00391
0.00531
0.01273
0.01584
0.02246
0.03464
0.03058
0.03461
0.03397
0.03519
0.03613
0.03525
0.02811
0.03485
0.02985
0.03183
0.03192
0.03763
0.04187
0.0477
0.03937
0.04352
0.04422
0.04361
0.04865
0.04144
0.03973
0.04556
0.04269
0.03168
0.02429
0.02747
0.02597
0.03079
0.02853
0.0192
0.02173
0.0181
0.02191
0.01917
0.01608
0.01251
0.00757
0.00742
0.00452
-2.13623E-4
-0.00757
-0.01221
-0.01941
-0.02182
-0.02701
-0.03397
-0.03326
-0.03571
-0.03629
-0.04132
-0.04721
-0.04617
-0.03806
-0.03665
-0.03351
-0.03116
-0.02942
-0.02899
-0.02051
-0.022
-0.01666
-0.01791
-0.01059
-0.00964
-0.01483
-0.01105
-0.00644
-0.00455
-0.0036
-0.00745
-0.01431
-0.02094
-0.02542
-0.02502
-0.02689
-0.02881
-0.02191
-0.02289
-0.01617
-0.00821
-0.00891
-0.01157
-0.01093
-0.01318
-0.009
-0.01279
-0.01395
-0.01422
-0.02695
-0.0256
-0.02594
-0.02924
-0.03317
-0.04196
-0.03729
-0.03394
-0.03104
-0.03012
-0.0318
-0.03036
-0.02948
-0.02682
-0.02444
-0.01718
-0.01978
-0.02377
-0.02399
-0.03391
-0.02533
-0.02783
-0.02118
-0.01678
-0.01447
-0.01056
0.00131
0.00452
0.00568
0.0166
0.01495
0.01675
0.01694
0.01636
0.01938
0.02219
0.01877
0.01541
0.01251
0.02026
0.02261
0.0174
0.02136
0.02209
0.0231
0.0285
0.02524
0.01956
0.01648
0.01865
0.01657
0.01428
0.00858
0.00217
0.00311
0.00201
0.00262
0.00272
0.00369
0.00348
0.01541
0.01932
0.02225
0.0264
0.02631
0.03357
0.03906
0.03262
0.03625
0.03534
0.03452
0.04257
0.03662
0.03528
0.03052
0.03751
0.0358
0.03558
0.03238
0.03842
0.03326
0.02707
0.02756
0.02811
0.02509
0.02194
0.02393
0.01996
0.01337
0.00861
0.01163
0.01718
0.01245
0.00714
7.93457E-4
0.00357
0.00641
0.00726
0.00259
6.40869E-4
-0.00436
-0.00891
-0.00504
-0.0032
-0.01096
-0.00812
-0.01193
-0.00403
0.0051
0.01056
0.00476
0.00269
0.00793
0.00241
0.00668
0.004
0.0025
9.15527E-5
7.32422E-4
0.00482
0.00943
0.01202
0.0072
0.00305
0.00583
0.00616
0.01208
0.01764
0.0155
0.01379
0.0054
0.01102
0.01471
0.01343
0.01416
0.00806
0.00461
0.01352
0.00876
0.01117
0.01382
0.01819
0.01782
0.01855
0.01352
0.0192
0.01279
0.01553
0.00726
0.00769
0.0105
0.01181
0.00989
-3.35693E-4
0.00159
-0.00565
0.00156
3.96729E-4
-0.00806
-0.01016
-0.00854
-0.00998
-0.01099
-0.0148
-0.01926
-0.0174
-0.01761
-0.01627
-0.01917
-0.0163
-0.02008
-0.02402
-0.0195
-0.01804
-0.01956
-0.02594
-0.02258
-0.02823
-0.02603
-0.04028
-0.04205
-0.04144
-0.03604
-0.03168
-0.02603
-0.02597
-0.02258
-0.02261
-0.0256
-0.01855
-0.02704
-0.01938
-0.02768
-0.02921
-0.02835
-0.03366
-0.0274
-0.02869
-0.03177
-0.03369
-0.034
-0.03809
-0.03253
-0.03415
-0.02939
-0.03284
-0.03241
-0.03561
-0.03656
-0.04077
-0.03375
-0.03537
-0.03549
-0.03943
-0.04028
-0.04102
-0.04724
-0.05756
-0.05743
-0.06018
-0.05441
-0.05103
-0.05212
-0.0513
-0.05685
-0.06128
-0.05869
-0.05542
-0.05777
-0.05774
-0.05328
-0.05463
-0.05402
-0.05673
-0.05652
-0.05902
-0.05719
-0.0545
-0.05206
-0.04303
-0.04028
-0.0477
-0.03903
-0.03351
-0.03094
-0.02582
-0.02271
-0.02426
-0.01572
-0.02197
-0.01788
-0.01331
-0.01227
-0.00848
-0.00586
-0.01114
-0.00592
-0.00494
0.00159
-0.00272
0.00266
0.00784
0.00836
0.01672
0.02631
0.01862
0.02084
0.02002
0.01981
0.01898
0.02243
0.02002
0.02582
0.02893
0.03397
0.03394
0.03418
0.03461
0.04398
0.04599
0.05313
0.05093
0.04114
0.04932
0.05194
0.0502
0.06104
0.06024
0.06345
0.0672
0.05945
0.05991
0.05829
0.05566
0.05209
0.05862
0.06073
0.05396
0.05066
0.04941
0.04819
0.04453
0.04041
0.0416
0.0423
0.0365
0.03088
0.02533
0.02606
0.02692
0.01895
0.0108
0.00104
0.00577
1.52588E-4
-0.00381
-0.00323
-0.01221
-0.01822
-0.02139
-0.02863
-0.02609
-0.03122
-0.03287
-0.03198
-0.02945
-0.02234
-0.03021
-0.03348
-0.03571
-0.03244
-0.02798
-0.02841
-0.02859
-0.0365
-0.04129
-0.03735
-0.03552
-0.0285
-0.03073
-0.02881
-0.0202
-0.0274
-0.02274
-0.00928
-0.00677
-0.00912
-0.01273
-0.00601
-0.00336
0.00211
-6.10352E-4
-0.00699
-0.00641
-0.00531
-0.00775
-8.54492E-4
-0.00311
-0.00388
0.00421
3.35693E-4
0.00211
2.44141E-4
6.40869E-4
-1.2207E-4
-0.00195
-0.01508
-0.0152
-0.00867
-0.00729
-0.01553
-0.01175
-0.01129
-0.01044
-2.44141E-4
-7.62939E-4
3.96729E-4
0.00269
0.00308
0.00946
0.0105
0.00989
0.00653
0.00449
0.00116
-3.66211E-4
0.00464
-0.00732
-0.01007
-0.01205
-0.01199
-0.01767
-0.01825
-0.02325
-0.02112
-0.02414
-0.03082
-0.03195
-0.02975
-0.02335
-0.01517
-0.01773
-0.00946
-0.01166
-0.01395
-0.01251
-0.01263
-0.00198
-0.00873
-0.0072
-0.00116
-0.00186
-0.00525
-0.00296
9.76563E-4
-0.00272
0.00385
-0.00482
-0.00656
-0.00671
-0.00211
-0.00946
-0.00958
-0.01169
-0.01288
-0.01199
-0.00894
-0.01093
-0.01544
-0.02063
-0.02231
-0.02261
-0.0213
-0.02295
-0.02365
-0.02814
-0.02792
-0.02362
-0.01852
-0.01865
-0.02295
-0.02484
-0.01685
-0.01044
-0.01514
-0.01443
-0.0173
-0.01483
-0.01566
-0.01318
-0.00757
-0.0101
-0.01602
-0.01483
-0.00458
-0.00574
0.00461
-7.01904E-4
-0.00131
0.00397
0.00729
0.01639
0.01385
0.01691
0.01843
0.01633
0.01794
0.01834
0.01605
0.01688
0.01114
0.01346
0.01202
0.00314
0.00952
0.00858
0.01376
0.01974
0.01935
0.02032
0.02371
0.02655
0.02805
0.02591
0.02811
0.02805
0.03
0.02661
0.02399
0.01965
0.02121
0.02325
0.02686
0.02258
0.02463
0.02191
0.03082
0.02869
0.03793
0.03473
0.03146
0.03409
0.03616
0.03714
0.04117
0.04266
0.03696
0.03033
0.03491
0.02188
0.02386
0.02167
0.01926
0.0199
0.02209
0.02002
0.02017
0.01068
0.01312
0.01614
0.01416
0.00552
0.00259
-0.0029
-5.79834E-4
-0.00497
-0.0062
-0.0033
-0.01077
-0.01669
-0.01498
-0.00989
-0.01724
-0.01077
-0.01489
-0.01904
-0.01996
-0.02039
-0.02319
-0.01773
-0.02927
-0.02917
-0.02609
-0.02451
-0.02066
-0.02011
-0.03198
-0.02802
-0.02036
-0.01321
-0.01077
-0.01212
-0.0119
-0.01352
-0.00613
-0.00958
-0.01028
-0.01022
-0.01273
-0.00269
-0.00299
-0.0015
0.00186
0.00214
-7.93457E-4
0.00317
-0.00104
0.00461
0.004
0.00388
-0.00479
-0.00757
-0.00436
-0.00278
-0.00339
0.00159
-7.32422E-4
0.0011
1.2207E-4
4.27246E-4
9.15527E-4
0.00916
0.00778
0.00919
0.00684
0.0119
0.0152
0.01349
0.00891
0.00122
-0.00366
9.15527E-4
-0.00436
-0.00174
-0.00421
-6.71387E-4
0.00751
0.00574
-7.62939E-4
1.52588E-4
-2.13623E-4
0.00308
9.15527E-5
-1.52588E-4
-0.00806
-0.01685
-0.026
-0.02441
-0.02682
-0.03262
-0.03577
-0.03116
-0.02969
-0.03036
-0.03958
-0.04245
-0.03711
-0.03561
-0.02802
-0.02872
-0.02524
-0.02832
-0.03085
-0.02771
-0.02267
-0.02481
-0.022
-0.01346
-0.0174
-0.01984
-0.01404
-0.01193
-0.00864
-0.01312
-0.01105
-0.01572
-0.01236
-0.01276
-0.00827
-0.01138
-0.01346
-0.01434
-0.01498
-0.00385
-0.00937
-0.00397
-0.00299
-0.01257
-0.0098
-0.00891
-0.00998
-0.02185
-0.02222
-0.02228
-0.02713
-0.02606
-0.02478
-0.02762
-0.03949
-0.03833
-0.02939
-0.02176
-0.02539
-0.02603
-0.02399
-0.02908
-0.03116
-0.0289
-0.02631
-0.02542
-0.02734
-0.0242
-0.02386
-0.02216
-0.01642
-0.01413
-0.01266
-0.00699
-0.00208
-0.00385
-0.00229
0.00128
0.00174
-0.00183
-0.00397
0.00247
-0.00198
0.00681
0.00681
0.00162
-0.00174
0.00735
0.01208
0.01221
0.01428
0.01572
0.0195
0.01788
0.01968
0.02057
0.0188
0.01346
0.01965
0.01114
0.00436
0.00885
0.00995
0.00967
0.01004
0.00958
0.01346
0.0116
0.00626
0.01602
0.01758
0.02139
0.01483
0.01901
0.02213
0.0275
0.03226
0.0267
0.0332
0.03464
0.03851
0.03522
0.03284
0.03128
0.02368
0.02216
0.02182
0.01819
0.0199
0.0224
0.01926
0.02283
0.02145
0.01871
0.01685
0.01663
0.00925
0.00797
8.54492E-4
0.00793
0.01062
0.0022
-0.00394
-0.00336
-0.00589
-0.00806
-0.00433
-5.18799E-4
-0.01074
-0.01749
-0.01761
-0.01364
-0.0159
-0.01669
-0.02075
-0.01697
-0.01822
-0.00986
-0.01318
-0.01923
-0.02441
-0.02719
-0.02313
-0.02704
-0.03122
-0.03036
-0.02948
-0.02512
-0.0213
-0.0166
-0.021
-0.00647
-0.00916
-0.00989
-0.00388
9.15527E-5
0.00104
-0.00195
-0.00125
7.32422E-4
0.0032
0.01093
0.00693
0.0036
0.00784
0.00549
0.00644
0.01276
0.01187
0.01559
0.01813
0.01575
0.01788
0.01227
0.01511
0.02509
0.02234
0.02606
0.02933
0.0336
0.03488
0.02884
0.02698
0.02805
0.03275
0.03909
0.03372
0.03494
0.03174
0.03033
0.0387
0.03296
0.03064
0.01898
0.02173
0.01547
0.01941
0.0141
0.00519
0.00363
3.05176E-5
-6.10352E-4
-0.01138
-0.01529
-0.01889
-0.02686
-0.0235
-0.03296
-0.03754
-0.03348
-0.02548
-0.02579
-0.02097
-0.01907
-0.02161
-0.0155
-0.01389
-0.02036
-0.0202
-0.02029
-0.01529
-0.01208
-0.00827
-0.01218
-0.01135
-0.01059
-0.00473
-0.01151
-0.01416
-0.01733
-0.01355
-0.01511
-0.01889
-0.02063
-0.02112
-0.02383
-0.02533
-0.02005
-0.02335
-0.02371
-0.03519
-0.03217
-0.03149
-0.03952
-0.04568
-0.0466
-0.06284
-0.06143
-0.06509
-0.05542
-0.06265
-0.06964
-0.0708
-0.06448
-0.06216
-0.06073
-0.06342
-0.06302
-0.06012
-0.05408
-0.047
-0.0517
-0.05582
-0.05643
-0.06012
-0.05762
-0.05048
-0.04614
-0.04495
-0.0405
-0.03299
-0.02524
-0.02081
-0.01498
-0.00299
-0.00974
-0.01077
-0.00861
-0.00912
-0.01059
0.00211
-0.00278
0.00366
-0.00162
0.00211
0.00803
0.01382
0.01584
0.01563
0.01852
0.02304
0.02515
0.02814
0.02145
0.01349
0.01611
0.01401
0.00668
0.00238
0.00571
0.00769
0.00815
0.01068
0.00943
0.01053
0.0127
0.01779
0.01816
0.01797
0.02515
0.02432
0.03165
0.02515
0.03699
0.03387
0.03705
0.04001
0.0448
0.04272
0.04044
0.03082
0.03268
0.0303
0.03323
0.02808
0.02457
0.02191
0.01556
0.01978
0.01535
0.01767
0.02106
0.01889
0.02084
0.01584
0.01135
0.01041
0.01553
0.00931
0.00897
0.0043
3.05176E-5
-0.00204
0.00168
2.44141E-4
-0.00433
-0.00296
-0.00787
-0.0033
-0.00327
-0.00583
-0.01154
-0.00327
-0.00479
-0.00342
-0.00436
-0.0014
-0.01138
-0.01526
-0.01099
-0.01071
-0.01102
-0.01904
-0.01395
-0.01782
-0.01187
-0.00912
-0.00546
-0.00546
-0.00806
-0.00717
-0.01083
-0.00339
0.00369
0.00327
0.0036
-0.00137
-0.00381
0.00171
0.00381
-0.00137
0.0022
0.004
0.00989
0.00702
0.0112
0.02051
0.02582
0.02124
0.02478
0.01953
0.0191
0.02182
0.02161
0.0213
0.01987
0.02225
0.01834
0.01471
0.01459
0.01251
0.01999
0.01596
0.01266
0.01285
0.00873
0.01199
0.01489
0.00693
-0.00717
-0.01385
-0.01831
-0.02136
-0.0206
-0.03232
-0.03351
-0.04126
-0.0463
-0.05429
-0.05521
-0.05267
-0.05566
-0.05096
-0.05267
-0.05801
-0.0625
-0.05511
-0.05209
-0.05032
-0.04745
-0.0463
-0.03568
-0.0314
-0.03036
-0.03299
-0.02713
-0.02762
-0.02863
-0.03226
-0.02921
-0.0285
-0.02676
-0.02908
-0.02188
-0.01825
-0.02173
-0.02164
-0.01129
-0.01233
-0.00742
-0.004
-0.00287
-0.00589
0.00345
0.00153
0.00711
0.00256
-0.00275
6.71387E-4
-0.00565
-0.00406
-0.00824
-0.00702
-0.02167
-0.01752
-0.02063
-0.00848
-0.00314
-0.01099
-0.01297
-0.00293
-0.0014
-0.00162
-0.00717
-0.0076
-0.00848
-0.00952
-8.23975E-4
-0.0032
-0.00516
-0.00891
-0.00629
-0.01553
-0.01581
-0.008
-0.01682
-0.0145
-0.01361
-0.01044
-0.00488
-3.96729E-4
0.00122
0.00385
0.00574
0.00443
0.00952
0.01108
0.01349
0.01352
0.01324
0.01056
0.01019
0.01309
0.01913
0.01553
0.01547
0.02167
0.02005
0.02475
0.02591
0.02594
0.02594
0.01807
0.017
0.01297
0.01028
4.57764E-4
0.00601
0.00131
0.00366
0.00378
0.00128
0.00146
0.00323
0.01505
0.01294
0.01398
0.01791
0.01816
0.02231
0.01938
0.01962
0.02075
0.02747
0.0274
0.02213
0.02261
0.01181
0.00729
0.01172
0.01004
0.01016
0.00174
-0.00287
-0.00436
-0.00412
-0.00586
-0.01566
-0.01593
-0.01144
-0.01587
-0.01456
-0.01193
-0.00839
-0.0069
-0.01672
-0.01251
-0.01456
-0.01581
-0.01407
-0.02264
-0.01883
-0.03
-0.03146
-0.02429
-0.02814
-0.01788
-0.02234
-0.02811
-0.02264
-0.02325
-0.01227
-0.00977
-0.01089
-0.01572
-0.01828
-0.01682
-0.01508
-0.021
-0.03006
-0.02933
-0.02319
-0.02359
-0.01953
-0.02896
-0.02295
-0.02313
-0.0163
-0.00766
0.00128
0.0015
0.00598
5.18799E-4
0.00497
0.00607
0.00784
0.00287
0.00677
0.00616
0.00797
0.01422
0.0162
0.01407
0.01367
0.02304
0.02225
0.02368
0.02325
0.01978
0.02048
0.02652
0.01767
0.008
0.01871
0.03107
0.04001
0.0206
0.01825
0.02042
0.0134
0.00983
0.00421
0.004
0.00159
0.00729
6.10352E-5
9.15527E-4
-0.00305
-0.00381
-0.00818
-0.00717
-0.00766
-0.01654
-0.02661
-0.02972
-0.03064
-0.03
-0.02771
-0.03378
-0.03668
-0.03891
-0.03735
-0.04059
-0.03928
-0.03427
-0.02612
-0.02002
-0.01718
-0.00577
-0.01154
-0.00967
-0.00311
-9.76563E-4
0.00137
0.00739
0.0127
0.0126
0.01056
0.00726
0.01355
0.01459
0.01538
0.01334
0.00845
0.00262
0.0144
0.0162
0.00488
0.00845
0.00543
-0.00269
0.00314
-0.00287
0.00134
-0.0058
-0.01273
-0.01025
-0.00964
-0.00754
-0.01663
-0.02332
-0.02887
-0.02637
-0.021
-0.02679
-0.03387
-0.0238
-0.02689
-0.02664
-0.0253
-0.02689
-0.02905
-0.0383
-0.03793
-0.03638
-0.03741
-0.03574
-0.03156
-0.03305
-0.03296
-0.03342
-0.02637
-0.01904
-0.01962
-0.01981
-0.01141
-0.01361
-0.01266
-0.00861
-0.01459
-0.01129
-0.01254
-0.01138
-0.01013
-0.00504
-0.00571
-2.13623E-4
0.00595
0.00476
0.00821
0.01678
0.01736
0.02023
0.01724
0.01968
0.01999
0.0213
0.01987
0.01047
0.00586
0.01151
0.00696
0.00949
0.00458
0.0098
0.0072
0.00906
0.0127
0.01669
0.0256
0.02853
0.03003
0.03937
0.04202
0.04559
0.04391
0.04669
0.04913
0.05396
0.0553
0.06119
0.05984
0.05936
0.04996
0.04874
0.03741
0.03976
0.04443
0.04297
0.04099
0.03351
0.0278
0.02789
0.02765
0.02426
0.02176
0.02155
0.02078
0.01248
0.00922
0.01337
0.0116
0.00992
0.00388
-0.00403
-0.01077
-0.01175
-0.01273
-0.02072
-0.02521
-0.02972
-0.03159
-0.03571
-0.03763
-0.04529
-0.04297
-0.04367
-0.04343
-0.04471
-0.04379
-0.04349
-0.04919
-0.04965
-0.04361
-0.04126
-0.04346
-0.04037
-0.04236
-0.03961
-0.03558
-0.03152
-0.02734
-0.02649
-0.01697
-0.0195
-0.01544
-0.01364
-0.00891
-0.01324
-0.01382
-0.01529
-0.0097
-0.00385
-0.0069
-0.00476
5.49316E-4
-8.8501E-4
0.00299
0.01019
0.01208
0.01343
0.01981
0.03299
0.03906
0.04642
0.04709
0.05731
0.05457
0.05853
0.05911
0.06439
0.06372
0.05518
0.05325
0.04858
0.04294
0.03564
0.02527
0.01178
0.00336
-0.00723
-0.01324
-0.01706
-0.02017
-0.03067
-0.0365
-0.03702
-0.03302
-0.03235
-0.04449
-0.03506
-0.03372
-0.04138
-0.04346
-0.03421
-0.03333
-0.02869
-0.02716
-0.02191
-0.01746
-0.01208
0.00821
0.01459
0.02652
0.03635
0.04352
0.05377
0.05804
0.0697
0.07449
0.07639
0.07834
0.07941
0.08243
0.07858
0.07761
0.07141
0.06689
0.0545
0.03973
0.02673
0.02023
0.00861
-5.49316E-4
-0.01129
-0.02844
-0.0365
-0.04123
-0.05005
-0.05402
-0.06326
-0.08112
-0.08862
-0.09732
-0.10199
-0.11203
-0.12036
-0.13889
-0.13858
-0.1431
-0.14822
-0.16071
-0.16772
-0.17334
-0.17688
-0.17719
-0.18805
-0.19272
-0.20474
-0.20724
-0.21548
-0.22095
-0.22021
-0.23193
-0.22275
-0.22293
-0.2157
-0.20212
-0.1879
-0.17212
-0.15091
-0.12592
-0.09729
-0.06747
-0.0452
-0.0191
0.0054
0.02954
0.04749
0.06842
0.08844
0.10648
0.1178
0.1329
0.13593
0.15359
0.16348
0.16583
0.16306
0.16489
0.16837
0.1752
0.1655
0.17029
0.16824
0.16702
0.17438
0.17331
0.17615
0.19037
0.20297
0.22855
0.23688
0.25967
0.27438
0.30026
0.3194
0.34506
0.36252
0.36417
0.37006
0.36682
0.36319
0.34509
0.33615
0.31952
0.29379
0.2673
0.23798
0.19656
0.14499
0.11816
0.06796
0.01675
-0.0239
-0.06665
-0.10739
-0.15079
-0.18924
-0.22083
-0.24551
-0.27811
-0.30081
-0.33118
-0.35712
-0.38187
-0.38998
-0.4075
-0.4249
-0.43369
-0.44235
-0.44916
-0.44989
-0.44751
-0.44403
-0.44086
-0.43536
-0.4277
-0.41776
-0.41049
-0.39111
-0.38217
-0.37207
-0.36792
-0.36398
-0.3605
-0.36838
-0.38028
-0.39566
-0.40381
-0.3967
-0.40768
-0.39554
-0.38074
-0.3613
-0.31754
-0.27917
-0.22421
-0.16788
-0.11066
-0.04291
0.01443
0.0929
0.16745
0.23816
0.30365
0.37646
0.42545
0.49066
0.55231
0.60129
0.64313
0.68777
0.72311
0.75662
0.78513
0.79547
0.80304
0.80264
0.80533
0.80228
0.80136
0.79861
0.78476
0.77338
0.76352
0.733
0.70215
0.64944
0.6008
0.55859
0.50528
0.45651
0.40054
0.33734
0.28183
0.22974
0.16727
0.10483
0.04254
-0.00598
-0.05948
-0.11255
-0.14807
-0.18497
-0.22083
-0.24677
-0.26321
-0.27679
-0.28625
-0.29364
-0.29913
-0.29767
-0.29684
-0.297
-0.30051
-0.30334
-0.30774
-0.31027
-0.31918
-0.31985
-0.3334
-0.34601
-0.36078
-0.37766
-0.38919
-0.41199
-0.43295
-0.46088
-0.48029
-0.50958
-0.53094
-0.54724
-0.56213
-0.57901
-0.59149
-0.59937
-0.60471
-0.60492
-0.6131
-0.61328
-0.60944
-0.60556
-0.60199
-0.59036
-0.58566
-0.56961
-0.56219
-0.54666
-0.51938
-0.49066
-0.45764
-0.42081
-0.3703
-0.31879
-0.25504
-0.1915
-0.1279
-0.06439
0.00461
0.07016
0.14401
0.21603
0.28452
0.33133
0.38626
0.44061
0.48355
0.51425
0.54953
0.56662
0.56638
0.56763
0.55444
0.54196
0.5235
0.50293
0.48547
0.47662
0.4549
0.43668
0.41721
0.40045
0.39581
0.39325
0.38324
0.37177
0.36859
0.36789
0.36868
0.36761
0.36899
0.3739
0.37402
0.38037
0.37421
0.3696
0.36008
0.34903
0.34329
0.33264
0.31351
0.30731
0.29019
0.27216
0.24954
0.23001
0.2092
0.19092
0.16693
0.147
0.11569
0.09305
0.06616
0.04507
0.01865
-0.00766
-0.03625
-0.0629
-0.09055
-0.11502
-0.14551
-0.17188
-0.20206
-0.2157
-0.24448
-0.27264
-0.30075
-0.32587
-0.3501
-0.37149
-0.38571
-0.40826
-0.43384
-0.45227
-0.46802
-0.48001
-0.49332
-0.50476
-0.50781
-0.51059
-0.51663
-0.52011
-0.50644
-0.49551
-0.4888
-0.48169
-0.46783
-0.45953
-0.43854
-0.41437
-0.39142
-0.36682
-0.34958
-0.32733
-0.29739
-0.2731
-0.25021
-0.22537
-0.19687
-0.1774
-0.15161
-0.13174
-0.11227
-0.09814
-0.07529
-0.05856
-0.03918
-0.02744
-0.01614
-9.46045E-4
0.01343
0.03101
0.04395
0.0575
0.07489
0.08542
0.10696
0.11111
0.12915
0.14771
0.16046
0.17007
0.18652
0.19299
0.20886
0.22186
0.22458
0.23474
0.24698
0.26266
0.27554
0.28659
0.29175
0.29999
0.31158
0.32257
0.31781
0.32196
0.32916
0.32968
0.33331
0.33511
0.33774
0.35095
0.35281
0.34698
0.34995
0.35358
0.36206
0.36203
0.36404
0.35071
0.34454
0.33682
0.33304
0.31641
0.30466
0.29108
0.27374
0.2608
0.24557
0.22491
0.20111
0.18414
0.16498
0.15085
0.12723
0.10403
0.08356
0.06326
0.04108
0.01852
-0.00751
-0.02057
-0.03568
-0.05121
-0.06537
-0.07086
-0.08514
-0.10416
-0.11774
-0.12988
-0.14288
-0.14972
-0.16507
-0.18262
-0.19788
-0.20758
-0.22824
-0.23785
-0.24149
-0.254
-0.26459
-0.27371
-0.27457
-0.2822
-0.2868
-0.29568
-0.29947
-0.30341
-0.30865
-0.31094
-0.31464
-0.32315
-0.31836
-0.32504
-0.31512
-0.31369
-0.31802
-0.3248
-0.32526
-0.31766
-0.31165
-0.31363
-0.32114
-0.3186
-0.30707
-0.29642
-0.2868
-0.28101
-0.27536
-0.25848
-0.24695
-0.22568
-0.21341
-0.18814
-0.16983
-0.15225
-0.1319
-0.11172
-0.08832
-0.06967
-0.04843
-0.03705
-0.00626
0.01233
0.0307
0.0368
0.05502
0.0712
0.0874
0.09952
0.11426
0.1196
0.12949
0.13501
0.14368
0.15091
0.15936
0.16803
0.17892
0.18457
0.18741
0.19424
0.20105
0.20404
0.20313
0.2023
0.20676
0.21729
0.20728
0.20609
0.20947
0.20862
0.21161
0.20923
0.20117
0.19711
0.19275
0.19525
0.19104
0.18549
0.18649
0.18204
0.18353
0.18478
0.18301
0.1803
0.18137
0.17056
0.15982
0.15079
0.13614
0.13098
0.11996
0.10904
0.09875
0.09897
0.08286
0.07736
0.0636
0.05313
0.04868
0.04446
0.04059
0.03619
0.02997
0.03314
0.02725
0.02573
0.03107
0.02167
0.01102
0.00763
0.00198
-0.0062
-0.00223
-0.01169
-0.0192
-0.0238
-0.03278
-0.0365
-0.03354
-0.04095
-0.04041
-0.03616
-0.04221
-0.03757
-0.03497
-0.04434
-0.04346
-0.04196
-0.04584
-0.04092
-0.0415
-0.0481
-0.06238
-0.05423
-0.05542
-0.05911
-0.0607
-0.0629
-0.06705
-0.06259
-0.06339
-0.06345
-0.05603
-0.05655
-0.05435
-0.06107
-0.06281
-0.05914
-0.06354
-0.06573
-0.06912
-0.07285
-0.06708
-0.06421
-0.06366
-0.06143
-0.05273
-0.04922
-0.04364
-0.03854
-0.03442
-0.02914
-0.02661
-0.02585
-0.02145
-0.01398
-0.00635
-0.01611
-0.01788
-0.01129
-0.01566
-0.00897
-3.05176E-5
-0.00641
-0.00439
0.00201
0.00455
1.83105E-4
-0.00586
-0.00629
-0.00217
-0.00711
-0.00726
-0.00372
-0.01453
-0.01392
-0.01974
-0.01614
-0.01965
-0.01834
-0.02261
-0.0206
-0.0206
-0.02319
-0.02396
-0.02884
-0.02023
-0.02682
-0.01883
-0.01752
-0.01389
-0.01187
-0.01089
-0.00385
-0.00113
-3.35693E-4
0.00723
0.00555
0.00516
0.00623
0.01022
0.01871
0.01648
0.01743
0.02277
0.01657
0.01865
0.01892
0.02371
0.02112
0.02048
0.01703
0.02667
0.02945
0.02966
0.03024
0.0318
0.02557
0.02252
0.0188
0.01691
0.00946
0.00259
-0.0036
-0.00815
-0.00821
-0.01819
-0.01843
-0.0257
-0.02979
-0.02509
-0.0285
-0.03006
-0.02948
-0.03195
-0.03265
-0.03101
-0.03271
-0.03354
-0.03018
-0.03067
-0.0282
-0.03021
-0.02237
-0.01489
-0.017
-0.01184
-0.0112
-0.01297
-0.00961
-0.01337
-0.01111
-0.01556
-0.01526
-0.01605
-0.0177
-0.01627
-0.01285
-0.01083
-0.01907
-0.01974
-0.01492
-0.01224
-0.00986
-0.01315
-0.01129
-0.00708
-0.00839
-0.00378
-0.01422
-0.01569
-0.01102
-0.01639
-0.0188
-0.01492
-0.0162
-0.01648
-0.01593
-0.01093
-0.01181
-0.00333
-0.00342
-0.00586
0.00366
0.00623
0.00693
0.0087
0.00742
0.01007
0.01166
0.01239
0.01563
0.01849
0.01984
0.01962
0.0177
0.0145
0.01315
0.00589
0.01205
0.01114
0.00809
0.0098
0.00851
0.00558
0.00723
0.00345
0.00299
0.01202
0.00577
-0.00446
-0.0033
-8.8501E-4
-0.00851
-0.01279
-0.0098
-0.0134
-0.01257
-0.01416
-0.01898
-0.02426
-0.03156
-0.03586
-0.03412
-0.03625
-0.03415
-0.03354
-0.03375
-0.03473
-0.03339
-0.03387
-0.03275
-0.03513
-0.03778
-0.04001
-0.03674
-0.03241
-0.02786
-0.0311
-0.03629
-0.03497
-0.03439
-0.03229
-0.03116
-0.02765
-0.01782
-0.01743
-0.01266
-0.00851
-0.00323
-0.00293
0.00253
0
0.00339
0.00494
0.01224
0.00363
-0.0018
0.00333
0.00192
0.00339
0.008
0.01181
0.01266
0.01465
0.01453
0.01566
0.01108
0.01358
0.01416
0.01587
0.0145
0.01788
0.01917
0.00146
0.00378
0.00464
0.00589
0.00925
0.00717
-6.71387E-4
0.00369
0.00867
0.00638
0.01407
0.00699
0.0047
0.00815
0.00336
-8.8501E-4
-0.00516
-0.00858
-0.01465
-0.01904
-0.02682
-0.02972
-0.03922
-0.04108
-0.04001
-0.04773
-0.0542
-0.05283
-0.04825
-0.04825
-0.04724
-0.04703
-0.04568
-0.03445
-0.03467
-0.02686
-0.02325
-0.01285
-0.01349
-0.00467
-1.52588E-4
0.00467
0.00555
0.00806
0.01294
0.0166
0.02173
0.0192
0.0144
0.02322
0.02249
0.02057
0.01535
0.01318
0.01544
0.01907
0.01822
0.01401
0.01532
0.0105
0.00436
0.00351
0.00876
0.00787
-2.74658E-4
-0.0202
-0.01709
-0.01691
-0.01492
-0.01416
-0.02121
-0.02676
-0.01755
-0.01291
-0.01645
-0.01645
-0.02078
-0.01447
-0.01987
-0.01569
-0.01724
-0.0163
-0.01303
-0.01837
-0.01254
-0.00909
-0.00427
-0.00388
-0.00568
-0.00146
7.93457E-4
-7.93457E-4
0.00253
-0.00504
6.10352E-5
-0.00192
-0.0036
-0.0011
-0.00623
-0.00171
-0.00397
-0.0127
-0.00696
-0.0025
1.83105E-4
0.00641
0.00537
0.00806
0.00906
0.01041
0.01437
0.01666
0.01413
0.01028
0.01477
0.01413
0.00842
-5.79834E-4
0.0043
0.00339
-0.00146
0.00381
0.00681
0.00305
0.00317
0.01239
0.01028
0.02005
0.02237
0.02289
0.02298
0.0246
0.02737
0.0303
0.03192
0.03061
0.03119
0.02701
0.02341
0.02161
0.01746
0.01828
0.01743
0.01697
0.00882
0.00888
0.00211
0.0079
0.00613
0.00766
0.00937
0.00818
-9.15527E-5
-9.15527E-4
-0.00104
-2.44141E-4
-0.00101
-0.00937
-0.00955
-0.01431
-0.01874
-0.01996
-0.02173
-0.02322
-0.02933
-0.03073
-0.03076
-0.03134
-0.03018
-0.03
-0.03406
-0.02658
-0.03085
-0.02808
-0.02606
-0.03204
-0.03543
-0.03024
-0.02527
-0.02222
-0.02087
-0.02328
-0.01944
-0.01828
-0.00925
-0.00586
0.0083
0.00632
0.01068
0.01486
0.01385
0.01733
0.01556
0.02005
0.01227
0.02347
0.0246
0.02563
0.02454
0.02347
0.02481
0.02444
0.02612
0.03287
0.03372
0.03891
0.0361
0.03647
0.02805
0.03311
0.02359
0.01855
0.02039
0.0112
0.00836
0.01834
0.01349
0.01022
0.0036
0.01004
0.01093
0.009
0.00763
0.0051
0.004
0.00754
-0.00272
0.00409
-0.00436
-0.00574
-0.0094
-0.01208
-0.01218
-0.0144
-0.01889
-0.01788
-0.01996
-0.02228
-0.02045
-0.02319
-0.02872
-0.03122
-0.03268
-0.03906
-0.03711
-0.03598
-0.02899
-0.02164
-0.02237
-0.01773
-0.01498
-0.01346
-0.00812
-0.01004
-0.01169
-0.00476
-0.00626
-0.01022
-0.00287
-0.00964
-0.00461
-0.00195
-0.00446
-0.01154
-0.00931
-0.01001
-0.00623
-0.00549
-0.00427
-0.00964
-0.01147
-0.00665
-7.93457E-4
0.00113
-9.76563E-4
-0.00247
-0.00986
-0.0101
-0.00668
-0.00928
-0.01382
-0.01959
-0.02756
-0.02374
-0.01941
-0.01993
-0.02036
-0.02283
-0.02234
-0.02557
-0.01776
-0.01617
-0.02393
-0.02197
-0.01602
-0.0271
-0.02112
-0.01831
-0.02499
-0.03458
-0.02899
-0.02591
-0.01965
-0.01331
-0.00616
-0.00549
-0.00381
0.00192
0.00613
0.01175
0.01086
0.01239
0.01959
0.01321
0.01038
0.01468
0.01404
0.01974
0.01785
0.0181
0.02164
0.01352
0.01849
0.02341
0.02261
0.01453
0.01825
0.01825
0.02332
0.0246
0.01794
0.01971
0.02258
0.02112
0.01895
0.02774
0.02762
0.0257
0.03177
0.03067
0.03198
0.03561
0.03534
0.04123
0.04126
0.04306
0.03952
0.04193
0.04645
0.0499
0.04916
0.05179
0.05133
0.04721
0.04495
0.03195
0.03284
0.03043
0.02362
0.0246
0.02295
0.01508
0.01389
0.00647
0.00424
-0.0014
-0.00168
8.23975E-4
-0.00397
-0.00293
-0.01059
-0.01645
-0.00989
-0.01773
-0.01999
-0.02167
-0.02795
-0.02924
-0.03561
-0.02951
-0.02817
-0.02896
-0.03452
-0.03464
-0.03455
-0.02765
-0.03
-0.02194
-0.02887
-0.03183
-0.02448
-0.01926
-0.02557
-0.02408
-0.02328
-0.02005
-0.01978
-0.01758
-0.01932
-0.02524
-0.01852
-0.01465
-0.01218
-0.00989
-0.00677
-0.00473
3.05176E-5
-0.00256
0.00378
0.00836
0.00684
0.00983
0.00812
0.00525
0.00964
0.01239
0.0123
0.01114
0.01288
0.01721
0.02292
0.02109
0.02319
0.02707
0.03055
0.04074
0.03717
0.03568
0.03717
0.04214
0.04144
0.04138
0.04303
0.04782
0.04572
0.03937
0.03574
0.03354
0.03104
0.03253
0.03018
0.02115
0.02298
0.02383
0.0188
0.01508
0.0166
0.00555
0.00641
0.00143
-0.00681
-0.01114
-0.02435
-0.02765
-0.02618
-0.03122
-0.03308
-0.04187
-0.04562
-0.04303
-0.04553
-0.05365
-0.05319
-0.05185
-0.04816
-0.0549
-0.05054
-0.047
-0.04514
-0.0481
-0.04999
-0.05289
-0.04904
-0.05508
-0.05496
-0.05219
-0.05005
-0.05774
-0.04999
-0.04022
-0.0441
-0.03922
-0.04535
-0.04593
-0.04922
-0.04514
-0.04474
-0.043
-0.0481
-0.04404
-0.04803
-0.03992
-0.04324
-0.0426
-0.03564
-0.03958
-0.03278
-0.02859
-0.03268
-0.04373
-0.03854
-0.04034
-0.0376
-0.03763
-0.0365
-0.0365
-0.03494
-0.03473
-0.02902
-0.0304
-0.04114
-0.03546
-0.02597
-0.03085
-0.02832
-0.0267
-0.02518
-0.02225
-0.02487
-0.02277
-0.0173
-0.01373
-0.01312
-0.01273
-0.01328
-0.004
-0.00168
0.00241
0.00378
0.00385
-0.00244
0.00461
0.00967
0.01001
0.01456
0.02164
0.02994
0.02591
0.02368
0.02274
0.02155
0.02325
0.02313
0.02084
0.02811
0.02664
0.03214
0.02921
0.02502
0.02515
0.02493
0.02286
0.01938
0.01718
0.02264
0.01456
0.01889
0.01376
0.01263
0.00702
0.01733
0.01541
0.02066
0.02066
0.02457
0.01895
0.02356
0.02148
0.01987
0.01898
0.02524
0.03268
0.02802
0.0239
0.01956
0.01514
0.00684
1.83105E-4
8.23975E-4
-3.05176E-5
-0.00656
-0.00229
-0.00623
-0.0029
-0.00195
-0.00433
7.01904E-4
-8.54492E-4
-0.00992
-0.01505
-0.0177
-0.01166
-0.01538
-0.01843
-0.02457
-0.02899
-0.02707
-0.02841
-0.03012
-0.02689
-0.02563
-0.0321
-0.02759
-0.02243
-0.02762
-0.02328
-0.02661
-0.02304
-0.01688
-0.01501
-0.01767
-0.02139
-0.026
-0.0206
-0.0191
-0.02142
-0.02133
-0.02475
-0.02487
-0.02295
-0.01544
-0.01224
-0.01669
-0.01129
-0.01483
-0.01376
-0.00873
-0.00626
-0.0108
-0.00919
-0.00388
-8.23975E-4
-0.00931
-0.00513
-0.00162
-0.01184
-0.00739
-0.01328
-0.00281
0.00348
0.00119
0.0025
0.008
0.00897
0.00711
0.01086
0.00455
0.00775
0.00742
0.00272
0.00409
0.0087
0.00919
6.10352E-4
-0.00589
-0.00107
-0.00305
0.0014
-0.00247
-0.00842
-0.01105
-0.00668
-0.00568
-0.00607
-0.01453
-0.01846
-0.01794
-0.02136
-0.02155
-0.02682
-0.03577
-0.03891
-0.03943
-0.03625
-0.03879
-0.04184
-0.04706
-0.043
-0.04504
-0.0531
-0.05142
-0.05136
-0.04276
-0.03903
-0.03326
-0.0271
-0.02203
-0.02182
-0.02084
-0.00891
-0.01016
-0.00494
-6.10352E-5
-0.00403
0.00296
0.00348
-6.40869E-4
-0.00574
-0.00552
-0.004
-0.00342
-0.00146
-0.00476
4.88281E-4
-5.18799E-4
0.00604
0.00507
0.00592
0.01187
0.00952
0.01257
0.00674
0.00424
-0.00156
0.00204
0.00418
0.00766
6.71387E-4
-0.00165
-9.46045E-4
0.00763
0.00977
0.009
0.00525
0.00522
0.00711
0.00775
0.01111
0.00784
0.00348
-0.00131
4.57764E-4
0.00464
-0.00513
-6.40869E-4
-0.00427
-6.10352E-4
-0.00208
0.00302
0.00284
0.00266
0.00192
0.0011
0.00967
0.01843
0.02191
0.0134
0.0119
0.01691
0.01776
0.02106
0.01886
0.01541
0.01974
0.02173
0.022
0.02759
0.03146
0.03583
0.03537
0.03348
0.03781
0.03986
0.0408
0.03903
0.03525
0.03198
0.03137
0.03369
0.02921
0.02411
0.02548
0.02032
0.02914
0.02655
0.02554
0.02917
0.02603
0.03094
0.03574
0.03561
0.03149
0.03595
0.03271
0.0372
0.03915
0.04248
0.04282
0.0416
0.04343
0.04184
0.03143
0.02985
0.02905
0.02148
0.01996
0.02579
0.02377
0.02295
0.01364
0.01215
0.01566
0.01553
0.01337
0.00632
7.62939E-4
0.00131
-0.00125
-4.57764E-4
-0.00574
-0.00531
-0.01059
-0.01553
-0.01657
-0.02551
-0.01578
-0.02292
-0.02039
-0.02524
-0.02097
-0.02362
-0.02188
-0.01932
-0.02649
-0.02161
-0.01831
-0.02008
-0.01495
-0.02188
-0.02484
-0.02151
-0.01962
-0.00977
-0.0166
-0.01886
-0.02505
-0.01819
-0.01752
-0.01407
-0.01025
-0.00705
-0.00842
-0.00351
-0.00571
0.00345
0.00626
0.00488
0.00305
-0.0014
0.00635
0.00647
-0.00217
-0.00357
-0.00845
-0.00369
-0.00964
-0.0065
-0.00418
-0.0029
-0.0065
-0.00308
4.57764E-4
0.00201
0.0036
0.00635
0.00775
0.00516
0.0094
0.00861
0.01382
0.00443
8.23975E-4
0.00458
0.00839
0.00967
0.00742
-7.62939E-4
0.00107
0.0015
-0.00101
-0.00656
-0.01044
-0.01917
-0.01712
-0.01755
-0.02011
-0.02258
-0.02936
-0.02771
-0.02866
-0.0253
-0.02652
-0.03122
-0.03259
-0.03619
-0.04224
-0.04434
-0.03986
-0.03558
-0.02719
-0.02756
-0.0199
-0.00861
-0.00983
-0.00665
-0.00339
-0.00201
7.32422E-4
0.00308
-0.00217
-0.0043
-0.00278
-0.01276
-0.01605
-0.01822
-0.01871
-0.0163
-0.02176
-0.02448
-0.02084
-0.01208
-0.01456
-0.02579
-0.02548
-0.03049
-0.0253
-0.03021
-0.0314
-0.03229
-0.03555
-0.03583
-0.03284
-0.03442
-0.03766
-0.0387
-0.04929
-0.04745
-0.04376
-0.03961
-0.03476
-0.04504
-0.04324
-0.03845
-0.04022
-0.03885
-0.0347
-0.03909
-0.03937
-0.03238
-0.03122
-0.03583
-0.03403
-0.02689
-0.0285
-0.02585
-0.02161
-0.0173
-0.01364
-0.01389
-0.01215
-0.00861
-0.00241
0.00403
-0.0011
0.00485
0.00626
0.00125
0.00555
0.00903
0.00668
0.01471
0.01254
0.01587
0.01776
0.0209
0.01697
0.01532
0.01328
0.02435
0.02496
0.02695
0.0296
0.02194
0.02032
0.02435
0.02829
0.02191
0.0159
0.01428
0.0065
0.00735
0.00116
-0.00247
0.00107
-6.10352E-5
0.00449
0.00809
0.01285
0.0127
0.01492
0.01559
0.02106
0.02386
0.01852
0.02979
0.03412
0.02853
0.02203
0.01907
0.0191
0.01773
0.01532
0.01187
0.02228
0.01196
0.00812
0.00763
0.00562
0.00949
0.00671
0.00797
0.01276
7.01904E-4
0.00821
0.00742
0.00983
0.00809
0.00699
0.00613
-0.00259
-1.2207E-4
0.00226
0.00186
-0.00681
-0.00879
-0.01462
-0.01422
-0.0094
-0.01688
-0.0173
-0.01761
-0.02008
-0.01752
-0.01318
-0.01355
-0.0173
-0.01675
-0.01724
-0.01285
-0.00836
-0.01047
-0.00839
-0.01553
-0.01172
-0.00967
-0.00919
-0.00671
-0.00784
-0.00885
-0.00922
-0.00809
-0.00522
-0.00244
-2.74658E-4
-0.0032
-0.00571
-0.00711
-0.00558
-0.00241
-3.35693E-4
-0.00595
-0.0054
-0.00131
-9.15527E-5
-0.0032
0.00739
0.00574
0.00967
0.01019
0.0105
0.00967
0.00946
0.01187
0.0062
0.00897
0.00903
0.00839
0.00165
0.00208
0.00378
0.00418
0.00928
0.00565
0.00357
0.0029
0.00577
0.00433
-0.00104
-0.00122
-0.00821
-0.01105
-0.01599
-0.01785
-0.01935
-0.02451
-0.0206
-0.02408
-0.02698
-0.02969
-0.03281
-0.03543
-0.03522
-0.04428
-0.04034
-0.04166
-0.03363
-0.0347
-0.03488
-0.02621
-0.01926
-0.02014
-0.01987
-0.02112
-0.01389
-0.01929
-0.01151
-0.01508
-0.01608
-0.01535
-0.01184
-0.008
-0.01309
-0.00928
-0.01147
-0.01483
-0.00739
-0.00928
-5.49316E-4
-0.00616
-6.71387E-4
-8.8501E-4
-0.00525
-2.13623E-4
0.00131
-0.00427
-0.00638
-0.00946
-0.00626
-0.00922
-0.0127
-0.017
-0.02081
-0.01559
-0.01428
-0.01453
-0.01462
-0.01978
-0.01959
-0.02371
-0.02182
-0.01093
-0.01587
-0.02335
-0.02127
-0.0246
-0.02859
-0.02734
-0.02988
-0.0365
-0.03711
-0.03479
-0.03476
-0.02509
-0.02533
-0.02121
-0.01886
-0.01691
-0.00677
-0.01141
-0.0083
-0.00269
3.05176E-4
-0.00516
-0.01013
-0.00745
-0.00647
0.00131
0.0062
0.01059
0.00879
0.00931
0.01971
0.01596
0.02121
0.02258
0.02048
0.02606
0.02884
0.0386
0.0256
0.02615
0.02728
0.02475
0.0217
0.01758
0.01843
0.0148
0.01566
0.00977
0.00519
0.00998
0.00653
0.00806
0.00488
0.00745
0.01111
0.01123
0.01083
0.01691
0.01733
0.01926
0.0249
0.03018
0.02866
0.03314
0.03391
0.02667
0.02991
0.02844
0.02911
0.02545
0.02051
0.01825
0.02097
0.01947
0.02237
0.01593
0.01462
0.01483
0.01154
0.00894
0.01193
0.01227
0.00891
0.00644
-7.32422E-4
0.00302
-0.0011
-0.00424
-0.00668
-0.0062
-0.00778
-0.01602
-0.01163
-0.01114
-0.01404
-0.0145
-0.0155
-0.01138
-0.00821
-0.00922
-0.00891
-0.01364
-0.01694
-0.02106
-0.01422
-0.01074
-0.01361
-0.01962
-0.00897
-0.00705
-0.00833
-0.00476
0.00128
0.00482
0.00568
0.01004
0.01291
0.02139
0.02927
0.02811
0.02368
0.02161
0.01773
0.02225
0.01932
0.01505
0.01328
0.01239
0.01294
0.01715
0.01266
0.01846
0.02206
0.02429
0.02444
0.02347
0.02094
0.01917
0.02655
0.01917
0.02112
0.0304
0.02127
0.01382
0.01108
0.01022
0.01392
0.01721
0.01318
0.00562
0.00967
0.00763
0.01077
0.00967
0.0076
0.01089
0.00116
0.00348
-6.40869E-4
-0.00296
-0.00766
-0.01273
-0.01666
-0.01736
-0.02142
-0.02725
-0.02951
-0.02441
-0.02805
-0.03195
-0.03864
-0.03888
-0.03305
-0.03558
-0.03018
-0.02344
-0.02255
-0.02402
-0.02197
-0.01715
-0.01855
-0.01547
-0.02246
-0.01974
-0.01669
-0.02243
-0.0155
-0.01831
-0.01926
-0.02533
-0.02805
-0.02243
-0.02661
-0.02164
-0.02484
-0.03003
-0.03345
-0.03519
-0.03671
-0.03549
-0.03592
-0.03754
-0.04187
-0.04129
-0.03696
-0.03671
-0.03824
-0.04068
-0.04639
-0.04193
-0.03818
-0.04727
-0.04312
-0.05405
-0.05576
-0.04913
-0.04141
-0.04947
-0.05075
-0.05484
-0.04486
-0.04834
-0.0484
-0.0423
-0.04224
-0.04327
-0.03885
-0.03912
-0.02707
-0.02658
-0.02615
-0.02438
-0.02017
-0.00812
-0.0097
-0.01166
-0.00375
0.00369
0.00232
0.0043
0.01398
0.01187
0.0152
0.02176
0.0278
0.02942
0.03345
0.03464
0.03952
0.03793
0.04065
0.03775
0.03479
0.02924
0.03711
0.02878
0.03329
0.03931
0.03098
0.03293
0.03082
0.02759
0.02921
0.0213
0.02667
0.0202
0.0192
0.02258
0.0188
0.0238
0.02191
0.02481
0.02823
0.03143
0.03589
0.03778
0.03714
0.0441
0.0434
0.04865
0.04807
0.04138
0.03448
0.03702
0.03619
0.04343
0.04089
0.04321
0.03723
0.03244
0.02917
0.03787
0.03381
0.03201
0.02496
0.021
0.02438
0.01852
0.02011
0.01468
0.01379
-4.88281E-4
0.00238
-0.00439
-0.00964
-0.00677
-0.01672
-0.02182
-0.0311
-0.03488
-0.02966
-0.03284
-0.03534
-0.04022
-0.03729
-0.03888
-0.0322
-0.02985
-0.03131
-0.035
-0.03607
-0.04044
-0.04251
-0.0405
-0.04126
-0.04608
-0.04425
-0.04059
-0.03696
-0.02625
-0.02744
-0.02094
-0.02148
-0.01172
-0.01318
-0.00394
-0.00119
-0.00363
-0.00436
6.71387E-4
-8.23975E-4
-0.00458
-0.00336
-0.00256
-0.00424
-0.00848
6.10352E-5
-0.00558
-0.00183
-0.00723
0.00168
-7.01904E-4
0.0025
0.008
0.01208
0.01794
0.01096
0.0177
0.02661
0.02863
0.02441
0.0249
0.02451
0.02835
0.02942
0.02979
0.02075
0.02524
0.02933
0.02707
0.02625
0.01593
0.0072
0.00143
-0.00204
-0.00394
-0.01324
-0.01495
-0.02243
-0.02402
-0.0253
-0.02731
-0.03165
-0.0434
-0.04297
-0.04422
-0.05261
-0.05246
-0.05215
-0.05261
-0.0502
-0.04565
-0.04459
-0.03726
-0.03516
-0.03146
-0.04007
-0.03204
-0.02664
-0.0224
-0.02628
-0.01898
-0.02148
-0.02249
-0.01614
-0.01477
-0.02139
-0.02408
-0.02481
-0.01736
-0.01761
-0.01605
-0.01718
-0.02301
-0.02365
-0.02408
-0.02631
-0.02106
-0.02637
-0.02881
-0.03049
-0.02795
-0.03226
-0.03159
-0.03494
-0.03391
-0.03445
-0.0304
-0.02478
-0.01953
-0.03204
-0.03583
-0.02798
-0.02393
-0.02966
-0.02673
-0.02875
-0.02866
-0.03278
-0.02924
-0.02869
-0.03012
-0.02533
-0.02063
-0.02621
-0.02426
-0.01077
-0.00681
-0.01389
-0.00668
-2.74658E-4
0.00558
0.0043
0.00607
0.0047
0.01563
0.01343
0.0126
0.01291
0.00952
0.01593
0.017
0.0126
0.01614
0.01276
0.02142
0.0224
0.0209
0.02112
0.02493
0.02243
0.02664
0.02924
0.01978
0.02237
0.0239
0.02203
0.01556
0.01422
0.00784
0.0079
0.00977
0.01019
0.00772
0.00327
0.00818
0.00964
0.01581
0.0199
0.02164
0.01569
0.01459
0.01733
0.01663
0.01035
0.01239
0.01385
0.01492
0.00421
0.00534
0.00748
0.0025
0.00494
0.00638
-6.10352E-5
0.00262
0.00146
-0.0022
2.13623E-4
0.00204
0.00195
0.0014
0.00653
0.00357
-0.0047
-0.00284
-0.00204
0.00482
-0.00412
-0.00589
-0.01318
-0.01266
-0.00467
-0.00864
-0.01709
-0.01825
-0.0184
-0.01318
-0.0141
-0.01248
-0.01898
-0.01706
-0.01672
-0.01566
-0.0134
-0.01886
-0.02567
-0.01712
-0.02673
-0.02536
-0.02512
-0.01947
-0.02689
-0.02557
-0.01678
-0.00839
0.00131
-0.0011
0.00568
0.00427
0.0098
0.00641
0.01105
0.0195
0.01987
0.02261
0.02118
0.02484
0.02386
0.03052
0.02527
0.0253
0.02402
0.02747
0.02219
0.02066
0.01938
0.0246
0.02582
0.02698
0.02454
0.01651
0.02115
0.01385
0.01068
0.00827
0.01941
0.01849
0.01218
0.00537
-6.71387E-4
0.00864
0.00586
-0.00296
5.18799E-4
-0.00348
0.00647
7.62939E-4
6.71387E-4
-0.00122
-0.00784
-0.00745
-0.00821
-0.00186
-0.00424
-0.01257
-0.01367
-0.01666
-0.01617
-0.01794
-0.02524
-0.02853
-0.03668
-0.03564
-0.04025
-0.04141
-0.04376
-0.03473
-0.03351
-0.03027
-0.02658
-0.02527
-0.01941
-0.01669
-0.01193
-0.01163
-0.00308
-0.00775
-0.00336
-2.74658E-4
-0.00662
-0.01022
-0.00964
-0.00131
-0.01196
-0.01062
-0.01288
-0.01126
-0.00198
-0.00494
-0.00256
-0.00143
-0.00116
0.00183
-0.00253
-0.00378
-0.00363
-0.00732
-0.01532
-0.01456
-0.02136
-0.02979
-0.02942
-0.04001
-0.02887
-0.02661
-0.02579
-0.02603
-0.02826
-0.02185
-0.0188
-0.01358
-0.01553
-0.02017
-0.02417
-0.01688
-0.01065
-0.01645
-0.01416
-0.00513
-0.00897
-0.00806
-0.00211
0.0011
0.00241
0.00656
0.00272
0.00558
0.00812
0.01318
0.01279
0.00757
0.01236
0.00784
0.01233
0.01495
0.0116
0.00711
0.01297
0.0184
0.0162
0.01691
0.02512
0.02795
0.03162
0.03015
0.03226
0.03638
0.0311
0.03552
0.02652
0.02423
0.02789
0.02719
0.02261
0.0202
0.01898
0.02087
0.02704
0.02063
0.02838
0.01965
0.02328
0.02347
0.03214
0.02966
0.04114
0.0314
0.04169
0.04135
0.04565
0.0455
0.0502
0.04694
0.04694
0.04465
0.04044
0.03625
0.02692
0.02359
0.02341
0.01703
0.01578
0.01648
0.01703
0.01233
0.01935
0.01297
0.01019
0.01016
0.00168
-4.27246E-4
7.62939E-4
-2.44141E-4
-0.00928
-0.01385
-0.02045
-0.02618
-0.0282
-0.03073
-0.03088
-0.03485
-0.0365
-0.0426
-0.04623
-0.04721
-0.04297
-0.04892
-0.05844
-0.05441
-0.0535
-0.05011
-0.05099
-0.0614
-0.05576
-0.05716
-0.05896
-0.05304
-0.05261
-0.0582
-0.05475
-0.04874
-0.05048
-0.0488
-0.04349
-0.04749
-0.04468
-0.03958
-0.04208
-0.03561
-0.0304
-0.03122
-0.02792
-0.02527
-0.02686
-0.0177
-0.01251
-0.01416
-0.01413
-0.01428
-0.01007
-0.00668
-0.00357
0.00345
0.00787
0.01044
0.01508
0.01758
0.02365
0.02072
0.01935
0.02087
0.02536
0.02853
0.03442
0.02844
0.02441
0.0274
0.02725
0.03793
0.03687
0.02826
0.03476
0.03622
0.0296
0.0311
0.02399
0.01993
0.01636
0.02069
0.0083
0.01251
0.00601
-0.0018
-0.00323
0.00125
-0.01184
-0.02283
-0.02429
-0.02347
-0.02121
-0.0289
-0.03073
-0.0213
-0.01993
-0.01413
-0.01129
-0.01047
-0.00107
-0.00592
-0.00726
-0.00296
-5.49316E-4
-8.54492E-4
0.0015
-0.00351
-0.00729
-0.01212
-0.0062
-0.00201
-7.01904E-4
-0.00351
-6.40869E-4
-0.0076
0.00327
0.00168
5.18799E-4
0.00439
-3.05176E-4
0.00211
0.00241
-4.88281E-4
-0.00241
-0.0036
-0.01428
-0.01361
-0.01471
-0.0166
-0.02271
-0.02554
-0.03006
-0.02893
-0.02942
-0.02283
-0.02646
-0.03766
-0.03864
-0.04364
-0.03351
-0.03564
-0.03586
-0.03955
-0.03549
-0.03555
-0.03387
-0.02927
-0.03015
-0.03009
-0.02719
-0.02417
-0.02838
-0.0162
-0.022
-0.02121
-0.0213
-0.01501
-0.00644
-0.01144
-0.00562
-0.00244
0.00128
0.00449
0.00949
0.00769
0.00891
0.01599
0.01453
0.01172
0.00952
0.0127
0.01807
0.0177
0.01901
0.01929
0.02313
0.02271
0.03009
0.02527
0.01715
0.02176
0.02057
0.01691
0.0152
0.00751
0.0119
0.01428
0.0119
0.01611
0.01697
0.01584
0.01984
0.02362
0.02701
0.03152
0.02673
0.02972
0.03143
0.03326
0.03534
0.0401
0.03711
0.04611
0.04309
0.02896
0.02686
0.02454
0.0173
0.01328
0.01071
0.005
-0.00146
-0.00793
-0.00369
-0.00394
-2.13623E-4
0.00113
-0.00302
-0.00439
-0.00543
-0.00247
-0.00449
-0.00296
-0.00848
-0.0065
-0.00668
-0.01337
-0.02185
-0.01648
-0.017
-0.02032
-0.02133
-0.02014
-0.02188
-0.02066
-0.01785
-0.01923
-0.02081
-0.01529
-0.00632
-0.01303
-0.01563
-0.01767
-0.02515
-0.0285
-0.0271
-0.02933
-0.034
-0.02866
-0.02759
-0.03079
-0.02124
-0.02228
-0.02197
-0.01813
-0.01697
-0.0174
-0.00922
-0.00208
-0.0061
-0.00781
-0.00766
-0.01126
-0.00827
-0.00381
-0.00479
-0.01135
-0.01031
-0.00806
-0.00327
6.71387E-4
-0.00201
6.10352E-4
0.00366
0.00266
0.0015
0.00665
0.00705
0.01068
0.00858
0.01028
0.01941
0.01843
0.01166
0.00772
0.01462
0.01138
0.01425
0.02097
0.00864
0.00751
0.01556
0.0105
0.01004
0.00876
0.00665
0.0022
0.00275
0.00119
-7.93457E-4
0.00104
-0.01028
-0.01157
-0.00644
-0.01419
-0.01227
-0.01538
-0.02118
-0.01465
-0.02267
-0.0202
-0.02182
-0.01575
-0.01373
-0.00937
-0.00665
-0.00412
-0.00256
-0.00494
-0.0051
3.66211E-4
0.00143
-0.00449
-0.00195
0.00464
-0.00491
-0.00732
0.00247
0.00586
-0.00107
-0.00946
-0.00925
-0.00958
-0.00333
-0.00671
-0.01041
-0.01022
-0.00876
-0.00967
-0.004
-0.00479
-0.01227
-0.01279
-0.02148
-0.01642
-0.01154
-0.02118
-0.02869
-0.02853
-0.02582
-0.0256
-0.02103
-0.02359
-0.02664
-0.02573
-0.02005
-0.01505
-0.01895
-0.02454
-0.02783
-0.02557
-0.02234
-0.02765
-0.01929
-0.01294
-0.00885
-0.0069
-7.01904E-4
0.00522
0.00595
0.00757
0.01007
0.00772
0.01019
0.01212
0.01004
0.01291
0.01288
0.01672
0.0159
0.01907
0.01373
0.01279
0.01108
0.01779
0.01172
0.00885
0.00964
0.01367
0.00818
0.0043
0.00565
0.00336
0.00488
0.00787
0.00299
0.00156
0.00604
0.00632
0.00812
0.00858
0.00677
0.00732
0.00549
0.00842
0.00128
2.13623E-4
-0.00284
0.00491
0.00311
0.00394
0.00534
0.00839
0.01297
0.01389
0.01804
0.02203
0.02283
0.03632
0.03702
0.03043
0.03467
0.02902
0.01694
0.01871
0.02158
0.02267
0.0228
0.01651
0.01138
0.01022
0.0134
0.01236
0.00708
0.00504
0.00558
0.00247
-0.00388
0.00302
-0.00162
-0.00418
-0.00674
-0.01212
-0.01114
-0.00876
-0.01749
-0.01691
-0.01672
-0.02213
-0.02313
-0.01819
-0.02316
-0.01889
-0.02643
-0.02341
-0.01755
-0.01443
-0.01218
-0.01334
-0.02145
-0.01752
-0.0108
-0.00931
-0.01401
-0.01141
-0.01028
-0.0033
-0.0047
0.00531
0.00174
0.00565
0.01343
0.00912
0.01385
0.02267
0.02011
0.02292
0.01587
0.01505
0.01312
0.01151
0.00912
0.00375
0.00272
-0.00427
-0.0036
7.32422E-4
-0.00317
-0.00366
-0.0018
-0.0054
-0.00851
-0.00754
-0.0119
-0.00565
-0.00912
-0.01288
-0.01102
-0.00919
-0.00784
-0.01855
-0.01459
-0.0166
-0.02341
-0.01242
-0.01926
-0.02744
-0.03149
-0.02924
-0.03262
-0.03806
-0.03662
-0.03452
-0.0332
-0.03177
-0.03549
-0.04175
-0.04617
-0.04636
-0.04004
-0.0408
-0.03601
-0.0401
-0.04266
-0.04324
-0.04611
-0.04456
-0.05035
-0.03882
-0.03683
-0.03525
-0.03174
-0.03159
-0.02957
-0.02625
-0.02731
-0.01691
-0.01764
-0.01236
-0.02048
-0.02054
-0.01672
-0.02701
-0.01788
-0.01862
-0.01242
-0.01913
-0.01834
-0.02002
-0.01563
-0.01675
-0.02283
-0.01904
-0.02075
-0.01773
-0.01456
-0.01437
-0.01178
-0.01965
-0.01556
-0.01755
-0.01529
-0.01611
-0.01776
-0.02527
-0.02402
-0.0242
-0.01804
-0.02423
-0.02344
-0.02402
-0.02444
-0.01581
-0.01971
-0.01971
-0.02881
-0.02701
-0.02673
-0.02628
-0.03006
-0.02698
-0.0293
-0.02698
-0.03745
-0.03281
-0.02194
-0.02829
-0.02057
-0.02322
-0.01831
-0.01733
-0.01352
-0.01102
-0.01633
-0.00888
-0.00333
-0.00232
-0.00354
-0.00391
-0.00305
0.00336
0.0123
0.00897
0.00821
0.02228
0.02344
0.03192
0.02966
0.03598
0.03476
0.03723
0.03162
0.03247
0.03003
0.03323
0.03024
0.02103
0.02319
0.02768
0.02518
0.02493
0.02814
0.02905
0.02588
0.03494
0.02963
0.03226
0.03674
0.03381
0.03625
0.03879
0.04102
0.03671
0.04053
0.04547
0.05429
0.04642
0.04803
0.04343
0.03949
0.03613
0.03564
0.0354
0.03613
0.0354
0.02487
0.02109
0.02054
0.02502
0.02261
0.01962
0.01547
0.00854
0.00946
0.00906
0.00397
0.00275
-0.00369
-0.00958
-0.01505
-0.00681
-0.01163
-0.01697
-0.02319
-0.021
-0.02795
-0.02496
-0.02151
-0.01913
-0.01993
-0.02338
-0.02124
-0.01144
-0.00491
-0.01538
-0.01239
-0.01965
-0.0166
-0.02261
-0.02078
-0.02515
-0.02567
-0.02179
-0.01926
-0.01096
-0.01501
-0.01672
-0.00665
-0.0069
-0.00745
0.00546
0.0029
0.00717
0.00656
0.00607
0.00983
0.0127
0.0174
0.01825
0.02393
0.02316
0.02716
0.02966
0.02905
0.03271
0.03082
0.03104
0.03818
0.04004
0.03729
0.0296
0.03525
0.03534
0.0416
0.03323
0.03632
0.03433
0.03232
0.03253
0.03043
0.03433
0.03555
0.02423
0.0195
0.02411
0.01944
0.01849
0.01489
0.01279
0.00726
0.00586
0.00577
9.15527E-5
-0.00946
-0.01358
-0.01819
-0.02335
-0.01941
-0.02957
-0.03189
-0.03326
-0.0408
-0.04062
-0.04678
-0.05096
-0.04672
-0.03635
-0.04105
-0.03772
-0.03198
-0.02649
-0.02838
-0.02933
-0.03323
-0.03131
-0.02371
-0.02551
-0.03378
-0.03537
-0.04034
-0.03909
-0.03568
-0.03061
-0.03781
-0.04312
-0.03592
-0.03278
-0.03021
-0.02826
-0.02521
-0.02939
-0.02719
-0.0293
-0.03738
-0.03665
-0.03232
-0.03845
-0.03705
-0.0383
-0.03238
-0.03375
-0.03897
-0.04562
-0.04242
-0.03314
-0.03021
-0.03391
-0.03497
-0.03073
-0.02289
-0.02353
-0.01987
-0.02399
-0.02161
-0.02243
-0.02191
-0.02121
-0.0202
-0.02478
-0.02411
-0.02374
-0.02338
-0.01868
-0.01834
-0.01617
-0.01886
-0.00909
-0.00589
0.00583
0.01389
0.01669
0.01669
0.01633
0.02188
0.01859
0.02322
0.02649
0.02118
0.01926
0.02087
0.02271
0.02466
0.02963
0.03098
0.02841
0.03421
0.03342
0.03244
0.04379
0.0386
0.02219
0.02832
0.02393
0.01913
0.01953
0.01822
0.01715
0.01633
0.01886
0.01657
0.01089
0.01309
0.01208
0.02036
0.02081
0.01779
0.0159
0.02127
0.02365
0.02539
0.03534
0.02859
0.03076
0.03027
0.02396
0.01956
0.01071
0.00766
0.00281
0.01099
0.00363
0.0079
0.00644
0.00357
0.00125
-0.00378
-0.00577
-5.18799E-4
-0.0054
-0.00208
-0.00919
-0.00192
-0.00168
-0.00314
3.66211E-4
-0.00955
-0.01114
-0.01242
-0.01392
-0.01822
-0.02405
-0.02957
-0.03336
-0.0358
-0.03003
-0.02975
-0.03186
-0.03409
-0.02747
-0.02451
-0.01175
-0.0155
-0.02271
-0.02655
-0.02362
-0.01831
-0.01227
-0.01031
-0.01138
-0.0087
-0.0054
-0.00162
8.54492E-4
0.00458
0.0076
0.01178
0.01563
0.01767
0.02222
0.02911
0.03445
0.02539
0.02655
0.02463
0.03351
0.03595
0.03036
0.02734
0.03131
0.03815
0.03241
0.03439
0.03241
0.02866
0.02649
0.02737
0.02252
0.02261
0.02448
0.01508
0.01147
0.00687
0.01978
0.01569
0.00873
0.00925
0.00574
0.00656
0.01114
0.00851
0.00333
-9.15527E-5
0.00568
4.88281E-4
-0.00357
-0.00784
-0.00751
-0.01389
-0.01587
-0.02051
-0.02576
-0.02963
-0.02954
-0.03226
-0.03799
-0.03162
-0.04413
-0.04327
-0.05322
-0.05362
-0.05234
-0.05289
-0.05917
-0.04156
-0.04419
-0.03671
-0.0322
-0.02823
-0.03021
-0.02957
-0.021
-0.01752
-0.00421
-0.0032
-0.01175
-0.01669
-0.02094
-0.02045
-0.01572
-0.02219
-0.02158
-0.02127
-0.02045
-0.02402
-0.02176
-0.02206
-0.02811
-0.02719
-0.02103
-0.02127
-0.01587
-0.02066
-0.02634
-0.03204
-0.03122
-0.03082
-0.02762
-0.02689
-0.03033
-0.03821
-0.03302
-0.02686
-0.02344
-0.02347
-0.02899
-0.02908
-0.02148
-0.01581
-0.01999
-0.02118
-0.0206
-0.02142
-0.01785
-0.02066
-0.01938
-0.02173
-0.0199
-0.02002
-0.01852
-0.01456
-0.0123
-0.01419
-0.00851
-0.00925
-6.71387E-4
0.00723
4.88281E-4
0.00171
0.00626
-7.01904E-4
7.93457E-4
0.00165
-0.00165
0.0014
0.00684
0.00998
0.00745
0.01303
0.01108
0.01401
0.01202
0.02036
0.02191
0.02237
0.02924
0.02634
0.02579
0.01926
0.01779
0.02094
0.01611
0.00385
0.00482
0.00494
0.00729
0.00986
0.00568
0.01053
0.01633
0.01837
0.02905
0.0314
0.02954
0.03473
0.03201
0.03537
0.03134
0.03152
0.0369
0.03671
0.03888
0.03558
0.02859
0.03226
0.02487
0.02881
0.02652
0.02713
0.03076
0.02313
0.02744
0.03036
0.02972
0.02454
0.02167
0.02866
0.01328
0.01056
0.01093
0.01263
0.00671
0.00949
0.01031
0.01175
0.00116
-0.01074
-0.02029
-0.02316
-0.03152
-0.03513
-0.04034
-0.04068
-0.03665
-0.03973
-0.03955
-0.04034
-0.03079
-0.0311
-0.02896
-0.03262
-0.03363
-0.03638
-0.04034
-0.04211
-0.05328
-0.05594
-0.05643
-0.0593
-0.05832
-0.06052
-0.06216
-0.06271
-0.06424
-0.06638
-0.06891
-0.06357
-0.06531
-0.06754
-0.07245
-0.07327
-0.07721
-0.07733
-0.07837
-0.08145
-0.08188
-0.08417
-0.07864
-0.0751
-0.07556
-0.06564
-0.06522
-0.05649
-0.06152
-0.05588
-0.05606
-0.05225
-0.05539
-0.0564
-0.04419
-0.0369
-0.04321
-0.04211
-0.04785
-0.04065
-0.03012
-0.02029
-0.02402
-0.01837
-0.01904
-0.00824
-0.00681
-0.00623
-0.00647
-0.0072
-0.00687
-0.00571
0.00171
-0.01437
-0.01205
-0.01624
-0.017
-0.00906
-0.00998
-0.01099
-0.00336
-0.00156
0.00522
-0.00244
0.00562
0.00815
0.02029
0.02335
0.02972
0.02618
0.03818
0.04517
0.04929
0.0491
0.05325
0.05569
0.05594
0.05768
0.06625
0.05969
0.06232
0.06613
0.07208
0.07452
0.07639
0.07361
0.07758
0.07916
0.07541
0.07236
0.07056
0.06555
0.06396
0.06281
0.06149
0.05731
0.05511
0.05258
0.05096
0.04913
0.03958
0.02887
0.02521
0.03033
0.03476
0.02805
0.02417
0.02069
0.0213
0.02432
0.02597
0.02185
0.01263
0.01306
0.01276
0.01309
0.00983
0.01266
0.01443
0.01291
0.00931
0.01276
0.00906
0.01459
0.01303
0.01053
0.01007
0.00943
0.01645
0.01398
0.0206
0.01593
0.01706
0.01947
0.02383
0.0264
0.02661
0.02832
0.02994
0.0282
0.0332
0.03894
0.03577
0.03699
0.03732
0.0285
0.0343
0.03387
0.03839
0.03311
0.02768
0.03424
0.02975
0.03
0.0304
0.03107
0.0304
0.03314
0.03647
0.03302
0.03458
0.03207
0.0365
0.04303
0.04532
0.03787
0.03482
0.03366
0.03165
0.03152
0.0376
0.0358
0.0405
0.03888
0.03284
0.03131
0.02411
0.02591
0.02597
0.02536
0.01709
0.00726
0.00943
8.54492E-4
-0.00388
-0.00348
-0.00992
-0.01028
-0.01645
-0.02087
-0.02374
-0.02838
-0.03082
-0.02887
-0.03079
-0.0368
-0.03827
-0.04141
-0.04163
-0.04358
-0.05084
-0.05215
-0.05405
-0.05109
-0.04984
-0.05191
-0.05637
-0.06024
-0.05951
-0.05646
-0.05167
-0.05103
-0.05774
-0.06119
-0.05435
-0.04742
-0.05045
-0.05591
-0.05435
-0.05643
-0.05243
-0.04678
-0.04373
-0.04089
-0.04047
-0.03107
-0.03159
-0.02271
-0.01752
-0.0192
-0.01837
-0.02213
-0.0191
-0.01443
-0.01129
-0.01361
-0.01715
-0.01276
-0.01285
-0.01425
-0.01065
-0.00333
-0.01041
-0.00723
-0.00186
0.00146
0.00211
0.00461
0.00729
-0.0011
0.00775
0.00946
0.01187
0.01257
0.01099
0.00549
0.01355
0.01227
0.01495
0.01523
0.01068
0.01337
0.01556
0.01315
0.0112
0.01218
0.00723
0.00928
0.00751
-0.00192
-0.00827
-0.01315
-0.01886
-0.02148
-0.03021
-0.03723
-0.04282
-0.04688
-0.05191
-0.05954
-0.05652
-0.06104
-0.05026
-0.05289
-0.04633
-0.03934
-0.03262
-0.03766
-0.03894
-0.03177
-0.0274
-0.02866
-0.03033
-0.02661
-0.03552
-0.03531
-0.03644
-0.03723
-0.03888
-0.03619
-0.04031
-0.03812
